packetNo,session_start_ms,sample_time_ms,sample_index,raw_count,volts,heartrate
2485,1787651982454,1787654467454,0,54900,0.20942687628,68
2485,1787651982454,1787654467462,1,31100,0.11863708292,68
2485,1787651982454,1787654467470,2,10400,0.03967285088,68
2485,1787651982454,1787654467478,3,-5700,-0.02174377404,68
2485,1787651982454,1787654467486,4,-17200,-0.06561279184,68
2485,1787651982454,1787654467494,5,-24200,-0.09231567224000001,68
2485,1787651982454,1787654467502,6,-28000,-0.1068115216,68
2485,1787651982454,1787654467510,7,-29900,-0.11405944628,68
2485,1787651982454,1787654467518,8,-30800,-0.11749267376,68
2485,1787651982454,1787654467526,9,-31000,-0.1182556132,68
2485,1787651982454,1787654467534,10,-30500,-0.1163482646,68
2485,1787651982454,1787654467542,11,-29300,-0.11177062796000001,68
2485,1787651982454,1787654467550,12,-28000,-0.1068115216,68
2485,1787651982454,1787654467558,13,-27300,-0.10414123356,68
2485,1787651982454,1787654467566,14,-26500,-0.10108947580000001,68
2485,1787651982454,1787654467574,15,-25000,-0.09536743,68
2485,1787651982454,1787654467582,16,-23100,-0.08811950532,68
2485,1787651982454,1787654467590,17,-21600,-0.08239745952000001,68
2485,1787651982454,1787654467598,18,-20900,-0.07972717148,68
2485,1787651982454,1787654467606,19,-20300,-0.07743835316,68
2485,1787651982454,1787654467614,20,-18800,-0.07171630736,68
2485,1787651982454,1787654467622,21,-17300,-0.06599426156,68
2485,1787651982454,1787654467630,22,-16100,-0.06141662492,68
2485,1787651982454,1787654467638,23,-16000,-0.0610351552,68
2485,1787651982454,1787654467646,24,-16500,-0.06294250380000001,68
2485,1787651982454,1787654467654,25,-17200,-0.06561279184,68
2485,1787651982454,1787654467662,26,-16700,-0.06370544324,68
2485,1787651982454,1787654467670,27,-15400,-0.05874633688,68
2485,1787651982454,1787654467678,28,-15300,-0.05836486716,68
2485,1787651982454,1787654467686,29,-15800,-0.060272215760000004,68
2485,1787651982454,1787654467694,30,-16200,-0.06179809464,68
2485,1787651982454,1787654467702,31,-15800,-0.060272215760000004,68
2485,1787651982454,1787654467710,32,-14900,-0.05683898828,68
2485,1787651982454,1787654467718,33,-14500,-0.055313109400000005,68
2485,1787651982454,1787654467726,34,-14400,-0.05493163968,68
2485,1787651982454,1787654467734,35,-14600,-0.055694579120000004,68
2485,1787651982454,1787654467742,36,-13500,-0.0514984122,68
2485,1787651982454,1787654467750,37,-12800,-0.04882812416,68
2485,1787651982454,1787654467758,38,-11700,-0.04463195724,68
2485,1787651982454,1787654467766,39,-10900,-0.04158019948,68
2485,1787651982454,1787654467774,40,-10500,-0.0400543206,68
2485,1787651982454,1787654467782,41,-9800,-0.03738403256,68
2485,1787651982454,1787654467790,42,-9000,-0.0343322748,68
2485,1787651982454,1787654467798,43,-8500,-0.0324249262,68
2485,1787651982454,1787654467806,44,-7700,-0.02937316844,68
2485,1787651982454,1787654467814,45,-6800,-0.02593994096,68
2485,1787651982454,1787654467822,46,-6500,-0.0247955318,68
2485,1787651982454,1787654467830,47,-6300,-0.02403259236,68
2485,1787651982454,1787654467838,48,-5700,-0.02174377404,68
2485,1787651982454,1787654467846,49,-4700,-0.01792907684,68
2485,1787651982454,1787654467854,50,-3600,-0.01373290992,68
2485,1787651982454,1787654467862,51,-3400,-0.01296997048,68
2485,1787651982454,1787654467870,52,-3500,-0.0133514402,68
2485,1787651982454,1787654467878,53,-3300,-0.012588500760000001,68
2485,1787651982454,1787654467886,54,-2200,-0.00839233384,68
2485,1787651982454,1787654467894,55,-1600,-0.00610351552,68
2485,1787651982454,1787654467902,56,-1100,-0.00419616692,68
2485,1787651982454,1787654467910,57,-700,-0.00267028804,68
2485,1787651982454,1787654467918,58,100,0.00038146972,68
2485,1787651982454,1787654467926,59,1000,0.0038146972,68
2485,1787651982454,1787654467934,60,1800,0.00686645496,68
2485,1787651982454,1787654467942,61,1400,0.00534057608,68
2485,1787651982454,1787654467950,62,600,0.00228881832,68
2485,1787651982454,1787654467958,63,1600,0.00610351552,68
2485,1787651982454,1787654467966,64,6800,0.02593994096,68
2485,1787651982454,1787654467974,65,14300,0.05455016996,68
2485,1787651982454,1787654467982,66,18300,0.06980895876,68
2485,1787651982454,1787654467990,67,15000,0.057220458,68
2485,1787651982454,1787654467998,68,6700,0.025558471240000002,68
2485,1787651982454,1787654468006,69,-500,-0.0019073486,68
2485,1787651982454,1787654468014,70,-1800,-0.00686645496,68
2485,1787651982454,1787654468022,71,-1800,-0.00686645496,68
2485,1787651982454,1787654468030,72,-1000,-0.0038146972,68
2485,1787651982454,1787654468038,73,3800,0.01449584936,68
2485,1787651982454,1787654468046,74,6700,0.025558471240000002,68
2485,1787651982454,1787654468054,75,3400,0.01296997048,68
2485,1787651982454,1787654468062,76,-15000,-0.057220458,68
2485,1787651982454,1787654468070,77,-27800,-0.10604858216,68
2485,1787651982454,1787654468078,78,52000,0.1983642544,68
2485,1787651982454,1787654468086,79,238200,0.90866087304,68
2485,1787651982454,1787654468094,80,379600,1.44805905712,68
2485,1787651982454,1787654468102,81,326200,1.24435422664,68
2485,1787651982454,1787654468110,82,125800,0.47988890776000004,68
2485,1787651982454,1787654468118,83,-32900,-0.12550353788000002,68
2485,1787651982454,1787654468126,84,-47400,-0.18081664728,68
2485,1787651982454,1787654468134,85,9100,0.03471374452,68
2485,1787651982454,1787654468142,86,25200,0.09613036944,68
2485,1787651982454,1787654468150,87,1100,0.00419616692,68
2485,1787651982454,1787654468158,88,-5300,-0.02021789516,68
2485,1787651982454,1787654468166,89,300,0.00114440916,68
2485,1787651982454,1787654468174,90,600,0.00228881832,68
2485,1787651982454,1787654468182,91,2400,0.00915527328,68
2485,1787651982454,1787654468190,92,4700,0.01792907684,68
2485,1787651982454,1787654468198,93,6300,0.02403259236,68
2485,1787651982454,1787654468206,94,9400,0.03585815368,68
2485,1787651982454,1787654468214,95,12600,0.04806518472,68
2485,1787651982454,1787654468222,96,16100,0.06141662492,68
2485,1787651982454,1787654468230,97,20000,0.076293944,68
2485,1787651982454,1787654468238,98,23700,0.09040832364,68
2485,1787651982454,1787654468246,99,28400,0.10833740048,68
2485,1787651982454,1787654468254,100,34100,0.13008117452,68
2485,1787651982454,1787654468262,101,41400,0.15792846408,68
2485,1787651982454,1787654468270,102,49900,0.19035339028,68
2485,1787651982454,1787654468278,103,60400,0.23040771088,68
2485,1787651982454,1787654468286,104,71700,0.27351378924,68
2485,1787651982454,1787654468294,105,83800,0.31967162536,68
2485,1787651982454,1787654468302,106,93700,0.35743712764,68
2485,1787651982454,1787654468310,107,100800,0.38452147776,68
2485,1787651982454,1787654468318,108,104100,0.39710997852,68
2485,1787651982454,1787654468326,109,104700,0.39939879684,68
2485,1787651982454,1787654468334,110,99200,0.37841796224,68
2485,1787651982454,1787654468342,111,85800,0.32730101976000003,68
2485,1787651982454,1787654468350,112,64400,0.24566649968,68
2485,1787651982454,1787654468358,113,39700,0.15144347884,68
2485,1787651982454,1787654468366,114,16000,0.0610351552,68
2485,1787651982454,1787654468374,115,-3300,-0.012588500760000001,68
2485,1787651982454,1787654468382,116,-18000,-0.0686645496,68
2485,1787651982454,1787654468390,117,-27500,-0.104904173,68
2485,1787651982454,1787654468398,118,-33000,-0.12588500760000002,68
2485,1787651982454,1787654468406,119,-35500,-0.1354217506,68
2485,1787651982454,1787654468414,120,-37400,-0.14266967528,68
2485,1787651982454,1787654468422,121,-38300,-0.14610290276000001,68
2485,1787651982454,1787654468430,122,-38300,-0.14610290276000001,68
2485,1787651982454,1787654468438,123,-37600,-0.14343261472,68
2485,1787651982454,1787654468446,124,-36400,-0.13885497808,68
2486,1787651982454,1787654468454,0,-35700,-0.13618469004,68
2486,1787651982454,1787654468462,1,-35100,-0.13389587172,68
2486,1787651982454,1787654468470,2,-34600,-0.13198852312,68
2486,1787651982454,1787654468478,3,-33600,-0.12817382592,68
2486,1787651982454,1787654468486,4,-31900,-0.12168884068000001,68
2486,1787651982454,1787654468494,5,-30700,-0.11711120404,68
2486,1787651982454,1787654468502,6,-29600,-0.11291503712,68
2486,1787651982454,1787654468510,7,-29000,-0.11062621880000001,68
2486,1787651982454,1787654468518,8,-28000,-0.1068115216,68
2486,1787651982454,1787654468526,9,-26600,-0.10147094552000001,68
2486,1787651982454,1787654468534,10,-25600,-0.09765624832,68
2486,1787651982454,1787654468542,11,-25400,-0.09689330888,68
2486,1787651982454,1787654468550,12,-25000,-0.09536743,68
2486,1787651982454,1787654468558,13,-24800,-0.09460449056,68
2486,1787651982454,1787654468566,14,-24500,-0.0934600814,68
2486,1787651982454,1787654468574,15,-24500,-0.0934600814,68
2486,1787651982454,1787654468582,16,-24900,-0.09498596028,68
2486,1787651982454,1787654468590,17,-25000,-0.09536743,68
2486,1787651982454,1787654468598,18,-24800,-0.09460449056,68
2486,1787651982454,1787654468606,19,-24600,-0.09384155112,68
2486,1787651982454,1787654468614,20,-24200,-0.09231567224000001,68
2486,1787651982454,1787654468622,21,-24000,-0.09155273280000001,68
2486,1787651982454,1787654468630,22,-24100,-0.09193420252000001,68
2486,1787651982454,1787654468638,23,-23900,-0.09117126308000001,68
2486,1787651982454,1787654468646,24,-23300,-0.08888244476,68
2486,1787651982454,1787654468654,25,-22600,-0.08621215672,68
2486,1787651982454,1787654468662,26,-21900,-0.08354186868,68
2486,1787651982454,1787654468670,27,-21500,-0.08201598980000001,68
2486,1787651982454,1787654468678,28,-21500,-0.08201598980000001,68
2486,1787651982454,1787654468686,29,-21200,-0.08087158064,68
2486,1787651982454,1787654468694,30,-20300,-0.07743835316,68
2486,1787651982454,1787654468702,31,-19500,-0.0743865954,68
2486,1787651982454,1787654468710,32,-19200,-0.07324218624,68
2486,1787651982454,1787654468718,33,-18300,-0.06980895876,68
2486,1787651982454,1787654468726,34,-17900,-0.06828307988,68
2486,1787651982454,1787654468734,35,-17700,-0.06752014044,68
2486,1787651982454,1787654468742,36,-17400,-0.06637573128,68
2486,1787651982454,1787654468750,37,-17000,-0.0648498524,68
2486,1787651982454,1787654468758,38,-16400,-0.06256103408000001,68
2486,1787651982454,1787654468766,39,-16000,-0.0610351552,68
2486,1787651982454,1787654468774,40,-15700,-0.05989074604,68
2486,1787651982454,1787654468782,41,-15500,-0.0591278066,68
2486,1787651982454,1787654468790,42,-14500,-0.055313109400000005,68
2486,1787651982454,1787654468798,43,-13300,-0.050735472760000004,68
2486,1787651982454,1787654468806,44,-12400,-0.04730224528,68
2486,1787651982454,1787654468814,45,-11200,-0.04272460864,68
2486,1787651982454,1787654468822,46,-11400,-0.04348754808,68
2486,1787651982454,1787654468830,47,-12000,-0.045776366400000004,68
2486,1787651982454,1787654468838,48,-11400,-0.04348754808,68
2486,1787651982454,1787654468846,49,-8600,-0.03280639592,68
2486,1787651982454,1787654468854,50,-2700,-0.010299682440000001,68
2486,1787651982454,1787654468862,51,3600,0.01373290992,68
2486,1787651982454,1787654468870,52,5800,0.02212524376,68
2486,1787651982454,1787654468878,53,900,0.00343322748,68
2486,1787651982454,1787654468886,54,-8300,-0.031661986760000004,68
2486,1787651982454,1787654468894,55,-14500,-0.055313109400000005,68
2486,1787651982454,1787654468902,56,-15100,-0.05760192772,68
2486,1787651982454,1787654468910,57,-15300,-0.05836486716,68
2486,1787651982454,1787654468918,58,-12300,-0.04692077556,68
2486,1787651982454,1787654468926,59,-7300,-0.027847289560000002,68
2486,1787651982454,1787654468934,60,-6300,-0.02403259236,68
2486,1787651982454,1787654468942,61,-14300,-0.05455016996,68
2486,1787651982454,1787654468950,62,-37500,-0.143051145,68
2486,1787651982454,1787654468958,63,-25500,-0.0972747786,68
2486,1787651982454,1787654468966,64,103500,0.3948211602,68
2486,1787651982454,1787654468974,65,297600,1.13525388672,68
2486,1787651982454,1787654468982,66,376800,1.43737790496,68
2486,1787651982454,1787654468990,67,250800,0.95672605776,68
2486,1787651982454,1787654468998,68,42900,0.16365050988000002,68
2486,1787651982454,1787654469006,69,-63900,-0.24375915108,68
2486,1787651982454,1787654469014,70,-36400,-0.13885497808,68
2486,1787651982454,1787654469022,71,12600,0.04806518472,68
2486,1787651982454,1787654469030,72,5300,0.02021789516,68
2486,1787651982454,1787654469038,73,-17500,-0.066757201,68
2486,1787651982454,1787654469046,74,-16100,-0.06141662492,68
2486,1787651982454,1787654469054,75,-11800,-0.04501342696,68
2486,1787651982454,1787654469062,76,-11800,-0.04501342696,68
2486,1787651982454,1787654469070,77,-9300,-0.03547668396,68
2486,1787651982454,1787654469078,78,-7100,-0.02708435012,68
2486,1787651982454,1787654469086,79,-4600,-0.01754760712,68
2486,1787651982454,1787654469094,80,-1200,-0.00457763664,68
2486,1787651982454,1787654469102,81,1500,0.0057220458000000005,68
2486,1787651982454,1787654469110,82,5200,0.01983642544,68
2486,1787651982454,1787654469118,83,9100,0.03471374452,68
2486,1787651982454,1787654469126,84,13400,0.051116942480000004,68
2486,1787651982454,1787654469134,85,18600,0.07095336792,68
2486,1787651982454,1787654469142,86,24800,0.09460449056,68
2486,1787651982454,1787654469150,87,31600,0.12054443152000001,68
2486,1787651982454,1787654469158,88,40500,0.1544952366,68
2486,1787651982454,1787654469166,89,51200,0.19531249664,68
2486,1787651982454,1787654469174,90,62900,0.23994445388000002,68
2486,1787651982454,1787654469182,91,74100,0.28266906252,68
2486,1787651982454,1787654469190,92,83200,0.31738280704,68
2486,1787651982454,1787654469198,93,89000,0.3395080508,68
2486,1787651982454,1787654469206,94,92800,0.35400390016,68
2486,1787651982454,1787654469214,95,92400,0.35247802128,68
2486,1787651982454,1787654469222,96,85300,0.32539367116,68
2486,1787651982454,1787654469230,97,69500,0.2651214554,68
2486,1787651982454,1787654469238,98,47000,0.1792907684,68
2486,1787651982454,1787654469246,99,22400,0.08544921728,68
2486,1787651982454,1787654469254,100,1200,0.00457763664,68
2486,1787651982454,1787654469262,101,-15800,-0.060272215760000004,68
2486,1787651982454,1787654469270,102,-27600,-0.10528564272,68
2486,1787651982454,1787654469278,103,-34600,-0.13198852312,68
2486,1787651982454,1787654469286,104,-38500,-0.1468658422,68
2486,1787651982454,1787654469294,105,-40200,-0.15335082744,68
2486,1787651982454,1787654469302,106,-40900,-0.15602111548,68
2486,1787651982454,1787654469310,107,-40800,-0.15563964576,68
2486,1787651982454,1787654469318,108,-40200,-0.15335082744,68
2486,1787651982454,1787654469326,109,-39500,-0.1506805394,68
2486,1787651982454,1787654469334,110,-38800,-0.14801025136,68
2486,1787651982454,1787654469342,111,-38200,-0.14572143304000001,68
2486,1787651982454,1787654469350,112,-37200,-0.14190673584,68
2486,1787651982454,1787654469358,113,-35800,-0.13656615976,68
2486,1787651982454,1787654469366,114,-34000,-0.1296997048,68
2486,1787651982454,1787654469374,115,-31800,-0.12130737096000001,68
2486,1787651982454,1787654469382,116,-29900,-0.11405944628,68
2486,1787651982454,1787654469390,117,-28200,-0.10757446104,68
2486,1787651982454,1787654469398,118,-27100,-0.10337829412,68
2486,1787651982454,1787654469406,119,-26600,-0.10147094552000001,68
2486,1787651982454,1787654469414,120,-25600,-0.09765624832,68
2486,1787651982454,1787654469422,121,-24300,-0.09269714196,68
2486,1787651982454,1787654469430,122,-23200,-0.08850097504,68
2486,1787651982454,1787654469438,123,-22800,-0.08697509616,68
2486,1787651982454,1787654469446,124,-22700,-0.08659362644,68
2487,1787651982454,1787654469454,0,-22600,-0.08621215672,68
2487,1787651982454,1787654469462,1,-22300,-0.08506774756,68
2487,1787651982454,1787654469470,2,-21900,-0.08354186868,68
2487,1787651982454,1787654469478,3,-21500,-0.08201598980000001,68
2487,1787651982454,1787654469486,4,-21000,-0.0801086412,68
2487,1787651982454,1787654469494,5,-20400,-0.07781982288,68
2487,1787651982454,1787654469502,6,-19800,-0.07553100456,68
2487,1787651982454,1787654469510,7,-19200,-0.07324218624,68
2487,1787651982454,1787654469518,8,-19000,-0.07247924680000001,68
2487,1787651982454,1787654469526,9,-18400,-0.07019042848,68
2487,1787651982454,1787654469534,10,-17800,-0.06790161016,68
2487,1787651982454,1787654469542,11,-16900,-0.06446838268,68
2487,1787651982454,1787654469550,12,-15900,-0.060653685480000004,68
2487,1787651982454,1787654469558,13,-15100,-0.05760192772,68
2487,1787651982454,1787654469566,14,-14700,-0.05607604884,68
2487,1787651982454,1787654469574,15,-14200,-0.05416870024,68
2487,1787651982454,1787654469582,16,-13300,-0.050735472760000004,68
2487,1787651982454,1787654469590,17,-12200,-0.04653930584,68
2487,1787651982454,1787654469598,18,-11400,-0.04348754808,68
2487,1787651982454,1787654469606,19,-10800,-0.041198729760000004,68
2487,1787651982454,1787654469614,20,-10300,-0.03929138116,68
2487,1787651982454,1787654469622,21,-9500,-0.036239623400000004,68
2487,1787651982454,1787654469630,22,-8800,-0.03356933536,68
2487,1787651982454,1787654469638,23,-8400,-0.03204345648,68
2487,1787651982454,1787654469646,24,-8000,-0.0305175776,68
2487,1787651982454,1787654469654,25,-7300,-0.027847289560000002,68
2487,1787651982454,1787654469662,26,-6400,-0.02441406208,68
2487,1787651982454,1787654469670,27,-5700,-0.02174377404,68
2487,1787651982454,1787654469678,28,-5200,-0.01983642544,68
2487,1787651982454,1787654469686,29,-4600,-0.01754760712,68
2487,1787651982454,1787654469694,30,-3800,-0.01449584936,68
2487,1787651982454,1787654469702,31,-3100,-0.01182556132,68
2487,1787651982454,1787654469710,32,-3000,-0.011444091600000001,68
2487,1787651982454,1787654469718,33,-2800,-0.01068115216,68
2487,1787651982454,1787654469726,34,-2000,-0.0076293944,68
2487,1787651982454,1787654469734,35,-700,-0.00267028804,68
2487,1787651982454,1787654469742,36,-600,-0.00228881832,68
2487,1787651982454,1787654469750,37,-200,-0.00076293944,68
2487,1787651982454,1787654469758,38,300,0.00114440916,68
2487,1787651982454,1787654469766,39,1100,0.00419616692,68
2487,1787651982454,1787654469774,40,1300,0.00495910636,68
2487,1787651982454,1787654469782,41,1000,0.0038146972,68
2487,1787651982454,1787654469790,42,1000,0.0038146972,68
2487,1787651982454,1787654469798,43,2400,0.00915527328,68
2487,1787651982454,1787654469806,44,5600,0.02136230432,68
2487,1787651982454,1787654469814,45,11100,0.04234313892,68
2487,1787651982454,1787654469822,46,16700,0.06370544324,68
2487,1787651982454,1787654469830,47,17200,0.06561279184,68
2487,1787651982454,1787654469838,48,11300,0.04310607836,68
2487,1787651982454,1787654469846,49,2100,0.00801086412,68
2487,1787651982454,1787654469854,50,-3200,-0.01220703104,68
2487,1787651982454,1787654469862,51,-3400,-0.01296997048,68
2487,1787651982454,1787654469870,52,-2900,-0.01106262188,68
2487,1787651982454,1787654469878,53,500,0.0019073486,68
2487,1787651982454,1787654469886,54,4400,0.01678466768,68
2487,1787651982454,1787654469894,55,5100,0.01945495572,68
2487,1787651982454,1787654469902,56,-2900,-0.01106262188,68
2487,1787651982454,1787654469910,57,-23000,-0.0877380356,68
2487,1787651982454,1787654469918,58,-2200,-0.00839233384,68
2487,1787651982454,1787654469926,59,129700,0.49476622684,68
2487,1787651982454,1787654469934,60,305100,1.16386411572,68
2487,1787651982454,1787654469942,61,355500,1.3561248546,68
2487,1787651982454,1787654469950,62,219900,0.83885191428,68
2487,1787651982454,1787654469958,63,30500,0.1163482646,68
2487,1787651982454,1787654469966,64,-51000,-0.1945495572,68
2487,1787651982454,1787654469974,65,-15500,-0.0591278066,68
2487,1787651982454,1787654469982,66,25600,0.09765624832,68
2487,1787651982454,1787654469990,67,14000,0.0534057608,68
2487,1787651982454,1787654469998,68,-5000,-0.019073486,68
2487,1787651982454,1787654470006,69,-2100,-0.00801086412,68
2487,1787651982454,1787654470014,70,1600,0.00610351552,68
2487,1787651982454,1787654470022,71,2400,0.00915527328,68
2487,1787651982454,1787654470030,72,4600,0.01754760712,68
2487,1787651982454,1787654470038,73,6500,0.0247955318,68
2487,1787651982454,1787654470046,74,8700,0.03318786564,68
2487,1787651982454,1787654470054,75,12000,0.045776366400000004,68
2487,1787651982454,1787654470062,76,15300,0.05836486716,68
2487,1787651982454,1787654470070,77,19100,0.07286071652000001,68
2487,1787651982454,1787654470078,78,22700,0.08659362644,68
2487,1787651982454,1787654470086,79,27000,0.1029968244,68
2487,1787651982454,1787654470094,80,32100,0.12245178012,68
2487,1787651982454,1787654470102,81,38500,0.1468658422,68
2487,1787651982454,1787654470110,82,46000,0.1754760712,68
2487,1787651982454,1787654470118,83,54800,0.20904540656,68
2487,1787651982454,1787654470126,84,65000,0.247955318,68
2487,1787651982454,1787654470134,85,76800,0.29296874496,68
2487,1787651982454,1787654470142,86,87600,0.33416747472,68
2487,1787651982454,1787654470150,87,96500,0.3681182798,68
2487,1787651982454,1787654470158,88,102400,0.39062499328,68
2487,1787651982454,1787654470166,89,105400,0.40206908488,68
2487,1787651982454,1787654470174,90,104800,0.39978026656,68
2487,1787651982454,1787654470182,91,98600,0.37612914392,68
2487,1787651982454,1787654470190,92,84100,0.32081603452,68
2487,1787651982454,1787654470198,93,62300,0.23765563556,68
2487,1787651982454,1787654470206,94,37900,0.14457702388000002,68
2487,1787651982454,1787654470214,95,16500,0.06294250380000001,68
2487,1787651982454,1787654470222,96,300,0.00114440916,68
2487,1787651982454,1787654470230,97,-11300,-0.04310607836,68
2487,1787651982454,1787654470238,98,-19100,-0.07286071652000001,68
2487,1787651982454,1787654470246,99,-23500,-0.0896453842,68
2487,1787651982454,1787654470254,100,-25100,-0.09574889972,68
2487,1787651982454,1787654470262,101,-25900,-0.09880065748,68
2487,1787651982454,1787654470270,102,-26200,-0.09994506664,68
2487,1787651982454,1787654470278,103,-25800,-0.09841918776,68
2487,1787651982454,1787654470286,104,-25000,-0.09536743,68
2487,1787651982454,1787654470294,105,-23900,-0.09117126308000001,68
2487,1787651982454,1787654470302,106,-23200,-0.08850097504,68
2487,1787651982454,1787654470310,107,-22500,-0.085830687,68
2487,1787651982454,1787654470318,108,-21100,-0.08049011092,68
2487,1787651982454,1787654470326,109,-19200,-0.07324218624,68
2487,1787651982454,1787654470334,110,-17700,-0.06752014044,68
2487,1787651982454,1787654470342,111,-17000,-0.0648498524,68
2487,1787651982454,1787654470350,112,-15800,-0.060272215760000004,68
2487,1787651982454,1787654470358,113,-15200,-0.05798339744,68
2487,1787651982454,1787654470366,114,-14100,-0.05378723052,68
2487,1787651982454,1787654470374,115,-12900,-0.04920959388,68
2487,1787651982454,1787654470382,116,-12700,-0.04844665444,68
2487,1787651982454,1787654470390,117,-13000,-0.0495910636,68
2487,1787651982454,1787654470398,118,-13100,-0.04997253332,68
2487,1787651982454,1787654470406,119,-12300,-0.04692077556,68
2487,1787651982454,1787654470414,120,-11300,-0.04310607836,68
2487,1787651982454,1787654470422,121,-11400,-0.04348754808,68
2487,1787651982454,1787654470430,122,-12100,-0.046157836120000004,68
2487,1787651982454,1787654470438,123,-12400,-0.04730224528,68
2487,1787651982454,1787654470446,124,-12300,-0.04692077556,68
2488,1787651982454,1787654470454,0,-12200,-0.04653930584,62
2488,1787651982454,1787654470462,1,-12000,-0.045776366400000004,62
2488,1787651982454,1787654470470,2,-11400,-0.04348754808,62
2488,1787651982454,1787654470478,3,-10300,-0.03929138116,62
2488,1787651982454,1787654470486,4,-9600,-0.03662109312,62
2488,1787651982454,1787654470494,5,-9400,-0.03585815368,62
2488,1787651982454,1787654470502,6,-9600,-0.03662109312,62
2488,1787651982454,1787654470510,7,-9000,-0.0343322748,62
2488,1787651982454,1787654470518,8,-8200,-0.031280517040000004,62
2488,1787651982454,1787654470526,9,-7200,-0.02746581984,62
2488,1787651982454,1787654470534,10,-6800,-0.02593994096,62
2488,1787651982454,1787654470542,11,-6900,-0.02632141068,62
2488,1787651982454,1787654470550,12,-6500,-0.0247955318,62
2488,1787651982454,1787654470558,13,-5700,-0.02174377404,62
2488,1787651982454,1787654470566,14,-4400,-0.01678466768,62
2488,1787651982454,1787654470574,15,-3700,-0.01411437964,62
2488,1787651982454,1787654470582,16,-4100,-0.015640258520000002,62
2488,1787651982454,1787654470590,17,-4400,-0.01678466768,62
2488,1787651982454,1787654470598,18,-4100,-0.015640258520000002,62
2488,1787651982454,1787654470606,19,-2700,-0.010299682440000001,62
2488,1787651982454,1787654470614,20,-1500,-0.0057220458000000005,62
2488,1787651982454,1787654470622,21,-1400,-0.00534057608,62
2488,1787651982454,1787654470630,22,-1300,-0.00495910636,62
2488,1787651982454,1787654470638,23,-1000,-0.0038146972,62
2488,1787651982454,1787654470646,24,-100,-0.00038146972,62
2488,1787651982454,1787654470654,25,800,0.00305175776,62
2488,1787651982454,1787654470662,26,400,0.00152587888,62
2488,1787651982454,1787654470670,27,100,0.00038146972,62
2488,1787651982454,1787654470678,28,600,0.00228881832,62
2488,1787651982454,1787654470686,29,2100,0.00801086412,62
2488,1787651982454,1787654470694,30,3100,0.01182556132,62
2488,1787651982454,1787654470702,31,2800,0.01068115216,62
2488,1787651982454,1787654470710,32,2800,0.01068115216,62
2488,1787651982454,1787654470718,33,3000,0.011444091600000001,62
2488,1787651982454,1787654470726,34,2900,0.01106262188,62
2488,1787651982454,1787654470734,35,2900,0.01106262188,62
2488,1787651982454,1787654470742,36,4400,0.01678466768,62
2488,1787651982454,1787654470750,37,9000,0.0343322748,62
2488,1787651982454,1787654470758,38,16500,0.06294250380000001,62
2488,1787651982454,1787654470766,39,21000,0.0801086412,62
2488,1787651982454,1787654470774,40,17800,0.06790161016,62
2488,1787651982454,1787654470782,41,8800,0.03356933536,62
2488,1787651982454,1787654470790,42,1100,0.00419616692,62
2488,1787651982454,1787654470798,43,-600,-0.00228881832,62
2488,1787651982454,1787654470806,44,0,0.0,62
2488,1787651982454,1787654470814,45,1100,0.00419616692,62
2488,1787651982454,1787654470822,46,5900,0.02250671348,62
2488,1787651982454,1787654470830,47,8700,0.03318786564,62
2488,1787651982454,1787654470838,48,5300,0.02021789516,62
2488,1787651982454,1787654470846,49,-13800,-0.05264282136,62
2488,1787651982454,1787654470854,50,-23200,-0.08850097504,62
2488,1787651982454,1787654470862,51,63800,0.24337768136000001,62
2488,1787651982454,1787654470870,52,252700,0.96397398244,62
2488,1787651982454,1787654470878,53,386300,1.47361752836,62
2488,1787651982454,1787654470886,54,322400,1.22985837728,62
2488,1787651982454,1787654470894,55,118300,0.45127867876,62
2488,1787651982454,1787654470902,56,-34600,-0.13198852312,62
2488,1787651982454,1787654470910,57,-43500,-0.1659393282,62
2488,1787651982454,1787654470918,58,12600,0.04806518472,62
2488,1787651982454,1787654470926,59,24900,0.09498596028,62
2488,1787651982454,1787654470934,60,900,0.00343322748,62
2488,1787651982454,1787654470942,61,-4700,-0.01792907684,62
2488,1787651982454,1787654470950,62,900,0.00343322748,62
2488,1787651982454,1787654470958,63,400,0.00152587888,62
2488,1787651982454,1787654470966,64,1300,0.00495910636,62
2488,1787651982454,1787654470974,65,3400,0.01296997048,62
2488,1787651982454,1787654470982,66,5700,0.02174377404,62
2488,1787651982454,1787654470990,67,9200,0.03509521424,62
2488,1787651982454,1787654470998,68,11600,0.04425048752,62
2488,1787651982454,1787654471006,69,13900,0.05302429108,62
2488,1787651982454,1787654471014,70,17300,0.06599426156,62
2488,1787651982454,1787654471022,71,22300,0.08506774756,62
2488,1787651982454,1787654471030,72,27100,0.10337829412,62
2488,1787651982454,1787654471038,73,32300,0.12321471956,62
2488,1787651982454,1787654471046,74,38400,0.14648437248,62
2488,1787651982454,1787654471054,75,47700,0.18196105644,62
2488,1787651982454,1787654471062,76,58100,0.22163390732000002,62
2488,1787651982454,1787654471070,77,69700,0.26588439484,62
2488,1787651982454,1787654471078,78,80600,0.30746459432,62
2488,1787651982454,1787654471086,79,90500,0.34523009660000004,62
2488,1787651982454,1787654471094,80,98000,0.3738403256,62
2488,1787651982454,1787654471102,81,102200,0.38986205384,62
2488,1787651982454,1787654471110,82,102100,0.38948058412000003,62
2488,1787651982454,1787654471118,83,97000,0.37002562840000003,62
2488,1787651982454,1787654471126,84,84300,0.32157897396,62
2488,1787651982454,1787654471134,85,63600,0.24261474192000002,62
2488,1787651982454,1787654471142,86,38200,0.14572143304000001,62
2488,1787651982454,1787654471150,87,13900,0.05302429108,62
2488,1787651982454,1787654471158,88,-5900,-0.02250671348,62
2488,1787651982454,1787654471166,89,-20500,-0.0782012926,62
2488,1787651982454,1787654471174,90,-29800,-0.11367797656,62
2488,1787651982454,1787654471182,91,-35700,-0.13618469004,62
2488,1787651982454,1787654471190,92,-38700,-0.14762878164,62
2488,1787651982454,1787654471198,93,-40400,-0.15411376688,62
2488,1787651982454,1787654471206,94,-41100,-0.15678405492,62
2488,1787651982454,1787654471214,95,-41200,-0.15716552464,62
2488,1787651982454,1787654471222,96,-40700,-0.15525817604,62
2488,1787651982454,1787654471230,97,-39900,-0.15220641828,62
2488,1787651982454,1787654471238,98,-38900,-0.14839172108,62
2488,1787651982454,1787654471246,99,-37700,-0.14381408444000002,62
2488,1787651982454,1787654471254,100,-36600,-0.13961791752,62
2488,1787651982454,1787654471262,101,-35600,-0.13580322032,62
2488,1787651982454,1787654471270,102,-34600,-0.13198852312,62
2488,1787651982454,1787654471278,103,-33600,-0.12817382592,62
2488,1787651982454,1787654471286,104,-31800,-0.12130737096000001,62
2488,1787651982454,1787654471294,105,-30500,-0.1163482646,62
2488,1787651982454,1787654471302,106,-29100,-0.11100768852000001,62
2488,1787651982454,1787654471310,107,-28200,-0.10757446104,62
2488,1787651982454,1787654471318,108,-27200,-0.10375976384,62
2488,1787651982454,1787654471326,109,-26700,-0.10185241524000001,62
2488,1787651982454,1787654471334,110,-26600,-0.10147094552000001,62
2488,1787651982454,1787654471342,111,-26700,-0.10185241524000001,62
2488,1787651982454,1787654471350,112,-26400,-0.10070800608000001,62
2488,1787651982454,1787654471358,113,-26000,-0.0991821272,62
2488,1787651982454,1787654471366,114,-25600,-0.09765624832,62
2488,1787651982454,1787654471374,115,-26000,-0.0991821272,62
2488,1787651982454,1787654471382,116,-26000,-0.0991821272,62
2488,1787651982454,1787654471390,117,-26200,-0.09994506664,62
2488,1787651982454,1787654471398,118,-26400,-0.10070800608000001,62
2488,1787651982454,1787654471406,119,-26400,-0.10070800608000001,62
2488,1787651982454,1787654471414,120,-25600,-0.09765624832,62
2488,1787651982454,1787654471422,121,-25100,-0.09574889972,62
2488,1787651982454,1787654471430,122,-24700,-0.09422302084,62
2488,1787651982454,1787654471438,123,-24200,-0.09231567224000001,62
2488,1787651982454,1787654471446,124,-23600,-0.09002685392,62
2489,1787651982454,1787654471454,0,-22600,-0.08621215672,62
2489,1787651982454,1787654471462,1,-21600,-0.08239745952000001,62
2489,1787651982454,1787654471470,2,-21100,-0.08049011092,62
2489,1787651982454,1787654471478,3,-20900,-0.07972717148,62
2489,1787651982454,1787654471486,4,-20500,-0.0782012926,62
2489,1787651982454,1787654471494,5,-19800,-0.07553100456,62
2489,1787651982454,1787654471502,6,-19100,-0.07286071652000001,62
2489,1787651982454,1787654471510,7,-18800,-0.07171630736,62
2489,1787651982454,1787654471518,8,-18300,-0.06980895876,62
2489,1787651982454,1787654471526,9,-17800,-0.06790161016,62
2489,1787651982454,1787654471534,10,-17000,-0.0648498524,62
2489,1787651982454,1787654471542,11,-16200,-0.06179809464,62
2489,1787651982454,1787654471550,12,-15500,-0.0591278066,62
2489,1787651982454,1787654471558,13,-15500,-0.0591278066,62
2489,1787651982454,1787654471566,14,-15100,-0.05760192772,62
2489,1787651982454,1787654471574,15,-14100,-0.05378723052,62
2489,1787651982454,1787654471582,16,-13400,-0.051116942480000004,62
2489,1787651982454,1787654471590,17,-13200,-0.050354003040000005,62
2489,1787651982454,1787654471598,18,-12600,-0.04806518472,62
2489,1787651982454,1787654471606,19,-11600,-0.04425048752,62
2489,1787651982454,1787654471614,20,-10600,-0.04043579032,62
2489,1787651982454,1787654471622,21,-10800,-0.041198729760000004,62
2489,1787651982454,1787654471630,22,-11300,-0.04310607836,62
2489,1787651982454,1787654471638,23,-11900,-0.04539489668,62
2489,1787651982454,1787654471646,24,-11400,-0.04348754808,62
2489,1787651982454,1787654471654,25,-7900,-0.030136107880000002,62
2489,1787651982454,1787654471662,26,-1300,-0.00495910636,62
2489,1787651982454,1787654471670,27,5000,0.019073486,62
2489,1787651982454,1787654471678,28,5500,0.0209808346,62
2489,1787651982454,1787654471686,29,-1400,-0.00534057608,62
2489,1787651982454,1787654471694,30,-11000,-0.0419616692,62
2489,1787651982454,1787654471702,31,-15200,-0.05798339744,62
2489,1787651982454,1787654471710,32,-15100,-0.05760192772,62
2489,1787651982454,1787654471718,33,-14400,-0.05493163968,62
2489,1787651982454,1787654471726,34,-9800,-0.03738403256,62
2489,1787651982454,1787654471734,35,-5300,-0.02021789516,62
2489,1787651982454,1787654471742,36,-6700,-0.025558471240000002,62
2489,1787651982454,1787654471750,37,-20000,-0.076293944,62
2489,1787651982454,1787654471758,38,-42900,-0.16365050988000002,62
2489,1787651982454,1787654471766,39,-4100,-0.015640258520000002,62
2489,1787651982454,1787654471774,40,160000,0.610351552,62
2489,1787651982454,1787654471782,41,349700,1.33399961084,62
2489,1787651982454,1787654471790,42,378300,1.44309995076,62
2489,1787651982454,1787654471798,43,208700,0.79612730564,62
2489,1787651982454,1787654471806,44,6200,0.02365112264,62
2489,1787651982454,1787654471814,45,-65800,-0.25100707576000003,62
2489,1787651982454,1787654471822,46,-21200,-0.08087158064,62
2489,1787651982454,1787654471830,47,15500,0.0591278066,62
2489,1787651982454,1787654471838,48,-2500,-0.009536743,62
2489,1787651982454,1787654471846,49,-19900,-0.07591247428,62
2489,1787651982454,1787654471854,50,-15000,-0.057220458,62
2489,1787651982454,1787654471862,51,-13000,-0.0495910636,62
2489,1787651982454,1787654471870,52,-12800,-0.04882812416,62
2489,1787651982454,1787654471878,53,-9900,-0.03776550228,62
2489,1787651982454,1787654471886,54,-7800,-0.02975463816,62
2489,1787651982454,1787654471894,55,-5100,-0.01945495572,62
2489,1787651982454,1787654471902,56,-1300,-0.00495910636,62
2489,1787651982454,1787654471910,57,1800,0.00686645496,62
2489,1787651982454,1787654471918,58,4900,0.01869201628,62
2489,1787651982454,1787654471926,59,8100,0.03089904732,62
2489,1787651982454,1787654471934,60,12500,0.047683715,62
2489,1787651982454,1787654471942,61,18300,0.06980895876,62
2489,1787651982454,1787654471950,62,24900,0.09498596028,62
2489,1787651982454,1787654471958,63,32900,0.12550353788000002,62
2489,1787651982454,1787654471966,64,41700,0.15907287324,62
2489,1787651982454,1787654471974,65,52200,0.19912719384,62
2489,1787651982454,1787654471982,66,64400,0.24566649968,62
2489,1787651982454,1787654471990,67,75700,0.28877257804,62
2489,1787651982454,1787654471998,68,84200,0.32119750424,62
2489,1787651982454,1787654472006,69,90000,0.343322748,62
2489,1787651982454,1787654472014,70,92900,0.35438536988,62
2489,1787651982454,1787654472022,71,91300,0.34828185436000003,62
2489,1787651982454,1787654472030,72,81800,0.31204223096,62
2489,1787651982454,1787654472038,73,63300,0.24147033276000002,62
2489,1787651982454,1787654472046,74,39000,0.1487731908,62
2489,1787651982454,1787654472054,75,14900,0.05683898828,62
2489,1787651982454,1787654472062,76,-5700,-0.02174377404,62
2489,1787651982454,1787654472070,77,-21900,-0.08354186868,62
2489,1787651982454,1787654472078,78,-32800,-0.12512206816000002,62
2489,1787651982454,1787654472086,79,-39700,-0.15144347884,62
2489,1787651982454,1787654472094,80,-43500,-0.1659393282,62
2489,1787651982454,1787654472102,81,-45400,-0.17318725288,62
2489,1787651982454,1787654472110,82,-46100,-0.17585754092,62
2489,1787651982454,1787654472118,83,-45700,-0.17433166204,62
2489,1787651982454,1787654472126,84,-45400,-0.17318725288,62
2489,1787651982454,1787654472134,85,-45200,-0.17242431344,62
2489,1787651982454,1787654472142,86,-45100,-0.17204284372,62
2489,1787651982454,1787654472150,87,-44300,-0.16899108596,62
2489,1787651982454,1787654472158,88,-43500,-0.1659393282,62
2489,1787651982454,1787654472166,89,-42700,-0.16288757044,62
2489,1787651982454,1787654472174,90,-41500,-0.1583099338,62
2489,1787651982454,1787654472182,91,-40000,-0.152587888,62
2489,1787651982454,1787654472190,92,-38800,-0.14801025136,62
2489,1787651982454,1787654472198,93,-37900,-0.14457702388000002,62
2489,1787651982454,1787654472206,94,-37000,-0.1411437964,62
2489,1787651982454,1787654472214,95,-35700,-0.13618469004,62
2489,1787651982454,1787654472222,96,-34700,-0.13236999284,62
2489,1787651982454,1787654472230,97,-33700,-0.12855529564,62
2489,1787651982454,1787654472238,98,-32900,-0.12550353788000002,62
2489,1787651982454,1787654472246,99,-32500,-0.123977659,62
2489,1787651982454,1787654472254,100,-31800,-0.12130737096000001,62
2489,1787651982454,1787654472262,101,-31600,-0.12054443152000001,62
2489,1787651982454,1787654472270,102,-31500,-0.12016296180000001,62
2489,1787651982454,1787654472278,103,-31300,-0.11940002236,62
2489,1787651982454,1787654472286,104,-31200,-0.11901855264,62
2489,1787651982454,1787654472294,105,-31000,-0.1182556132,62
2489,1787651982454,1787654472302,106,-30900,-0.11787414348,62
2489,1787651982454,1787654472310,107,-30300,-0.11558532516,62
2489,1787651982454,1787654472318,108,-29700,-0.11329650684,62
2489,1787651982454,1787654472326,109,-29500,-0.1125335674,62
2489,1787651982454,1787654472334,110,-29000,-0.11062621880000001,62
2489,1787651982454,1787654472342,111,-28100,-0.10719299132,62
2489,1787651982454,1787654472350,112,-27200,-0.10375976384,62
2489,1787651982454,1787654472358,113,-26200,-0.09994506664,62
2489,1787651982454,1787654472366,114,-25600,-0.09765624832,62
2489,1787651982454,1787654472374,115,-25100,-0.09574889972,62
2489,1787651982454,1787654472382,116,-24800,-0.09460449056,62
2489,1787651982454,1787654472390,117,-23800,-0.09078979336,62
2489,1787651982454,1787654472398,118,-22900,-0.08735656588,62
2489,1787651982454,1787654472406,119,-21900,-0.08354186868,62
2489,1787651982454,1787654472414,120,-21300,-0.08125305036,62
2489,1787651982454,1787654472422,121,-20900,-0.07972717148,62
2489,1787651982454,1787654472430,122,-20200,-0.07705688344,62
2489,1787651982454,1787654472438,123,-19800,-0.07553100456,62
2489,1787651982454,1787654472446,124,-19500,-0.0743865954,62
2490,1787651982454,1787654472454,0,-19200,-0.07324218624,62
2490,1787651982454,1787654472462,1,-18500,-0.0705718982,62
2490,1787651982454,1787654472470,2,-17800,-0.06790161016,62
2490,1787651982454,1787654472478,3,-17000,-0.0648498524,62
2490,1787651982454,1787654472486,4,-16600,-0.06332397352000001,62
2490,1787651982454,1787654472494,5,-15900,-0.060653685480000004,62
2490,1787651982454,1787654472502,6,-15600,-0.05950927632,62
2490,1787651982454,1787654472510,7,-14900,-0.05683898828,62
2490,1787651982454,1787654472518,8,-14000,-0.0534057608,62
2490,1787651982454,1787654472526,9,-13300,-0.050735472760000004,62
2490,1787651982454,1787654472534,10,-13300,-0.050735472760000004,62
2490,1787651982454,1787654472542,11,-12900,-0.04920959388,62
2490,1787651982454,1787654472550,12,-12000,-0.045776366400000004,62
2490,1787651982454,1787654472558,13,-10900,-0.04158019948,62
2490,1787651982454,1787654472566,14,-10000,-0.038146972,62
2490,1787651982454,1787654472574,15,-10200,-0.03890991144,62
2490,1787651982454,1787654472582,16,-11000,-0.0419616692,62
2490,1787651982454,1787654472590,17,-10600,-0.04043579032,62
2490,1787651982454,1787654472598,18,-7700,-0.02937316844,62
2490,1787651982454,1787654472606,19,-1800,-0.00686645496,62
2490,1787651982454,1787654472614,20,4900,0.01869201628,62
2490,1787651982454,1787654472622,21,7700,0.02937316844,62
2490,1787651982454,1787654472630,22,4600,0.01754760712,62
2490,1787651982454,1787654472638,23,-4000,-0.0152587888,62
2490,1787651982454,1787654472646,24,-11200,-0.04272460864,62
2490,1787651982454,1787654472654,25,-12500,-0.047683715,62
2490,1787651982454,1787654472662,26,-12200,-0.04653930584,62
2490,1787651982454,1787654472670,27,-10100,-0.03852844172,62
2490,1787651982454,1787654472678,28,-5300,-0.02021789516,62
2490,1787651982454,1787654472686,29,-3600,-0.01373290992,62
2490,1787651982454,1787654472694,30,-7500,-0.028610229,62
2490,1787651982454,1787654472702,31,-27800,-0.10604858216,62
2490,1787651982454,1787654472710,32,-29300,-0.11177062796000001,62
2490,1787651982454,1787654472718,33,70700,0.26969909204000003,62
2490,1787651982454,1787654472726,34,254800,0.9719848465600001,62
2490,1787651982454,1787654472734,35,361700,1.37977597724,62
2490,1787651982454,1787654472742,36,273800,1.04446409336,62
2490,1787651982454,1787654472750,37,76300,0.29106139636,62
2490,1787651982454,1787654472758,38,-49300,-0.18806457196,62
2490,1787651982454,1787654472766,39,-40400,-0.15411376688,62
2490,1787651982454,1787654472774,40,11200,0.04272460864,62
2490,1787651982454,1787654472782,41,13600,0.05187988192,62
2490,1787651982454,1787654472790,42,-9600,-0.03662109312,62
2490,1787651982454,1787654472798,43,-11100,-0.04234313892,62
2490,1787651982454,1787654472806,44,-6100,-0.02326965292,62
2490,1787651982454,1787654472814,45,-6300,-0.02403259236,62
2490,1787651982454,1787654472822,46,-4400,-0.01678466768,62
2490,1787651982454,1787654472830,47,-1100,-0.00419616692,62
2490,1787651982454,1787654472838,48,1700,0.00648498524,62
2490,1787651982454,1787654472846,49,4800,0.01831054656,62
2490,1787651982454,1787654472854,50,6900,0.02632141068,62
2490,1787651982454,1787654472862,51,9600,0.03662109312,62
2490,1787651982454,1787654472870,52,13200,0.050354003040000005,62
2490,1787651982454,1787654472878,53,17600,0.06713867072,62
2490,1787651982454,1787654472886,54,22700,0.08659362644,62
2490,1787651982454,1787654472894,55,28500,0.1087188702,62
2490,1787651982454,1787654472902,56,35000,0.133514402,62
2490,1787651982454,1787654472910,57,43200,0.16479491904000002,62
2490,1787651982454,1787654472918,58,52900,0.20179748188000002,62
2490,1787651982454,1787654472926,59,64400,0.24566649968,62
2490,1787651982454,1787654472934,60,76400,0.29144286608000003,62
2490,1787651982454,1787654472942,61,86900,0.33149718668,62
2490,1787651982454,1787654472950,62,94100,0.35896300652,62
2490,1787651982454,1787654472958,63,98200,0.37460326504,62
2490,1787651982454,1787654472966,64,99400,0.37918090168,62
2490,1787651982454,1787654472974,65,95000,0.362396234,62
2490,1787651982454,1787654472982,66,82900,0.31623839788,62
2490,1787651982454,1787654472990,67,62800,0.23956298416,62
2490,1787651982454,1787654472998,68,39000,0.1487731908,62
2490,1787651982454,1787654473006,69,16500,0.06294250380000001,62
2490,1787651982454,1787654473014,70,-1400,-0.00534057608,62
2490,1787651982454,1787654473022,71,-13900,-0.05302429108,62
2490,1787651982454,1787654473030,72,-22400,-0.08544921728,62
2490,1787651982454,1787654473038,73,-27800,-0.10604858216,62
2490,1787651982454,1787654473046,74,-30400,-0.11596679488,62
2490,1787651982454,1787654473054,75,-31100,-0.11863708292,62
2490,1787651982454,1787654473062,76,-30500,-0.1163482646,62
2490,1787651982454,1787654473070,77,-29900,-0.11405944628,62
2490,1787651982454,1787654473078,78,-29400,-0.11215209768,62
2490,1787651982454,1787654473086,79,-29200,-0.11138915824000001,62
2490,1787651982454,1787654473094,80,-28200,-0.10757446104,62
2490,1787651982454,1787654473102,81,-27100,-0.10337829412,62
2490,1787651982454,1787654473110,82,-25800,-0.09841918776,62
2490,1787651982454,1787654473118,83,-24100,-0.09193420252000001,62
2490,1787651982454,1787654473126,84,-22700,-0.08659362644,62
2490,1787651982454,1787654473134,85,-21200,-0.08087158064,62
2490,1787651982454,1787654473142,86,-19500,-0.0743865954,62
2490,1787651982454,1787654473150,87,-18400,-0.07019042848,62
2490,1787651982454,1787654473158,88,-17500,-0.066757201,62
2490,1787651982454,1787654473166,89,-16900,-0.06446838268,62
2490,1787651982454,1787654473174,90,-16000,-0.0610351552,62
2490,1787651982454,1787654473182,91,-14900,-0.05683898828,62
2490,1787651982454,1787654473190,92,-14400,-0.05493163968,62
2490,1787651982454,1787654473198,93,-14700,-0.05607604884,62
2490,1787651982454,1787654473206,94,-15200,-0.05798339744,62
2490,1787651982454,1787654473214,95,-15200,-0.05798339744,62
2490,1787651982454,1787654473222,96,-14700,-0.05607604884,62
2490,1787651982454,1787654473230,97,-14100,-0.05378723052,62
2490,1787651982454,1787654473238,98,-13900,-0.05302429108,62
2490,1787651982454,1787654473246,99,-13800,-0.05264282136,62
2490,1787651982454,1787654473254,100,-13300,-0.050735472760000004,62
2490,1787651982454,1787654473262,101,-12700,-0.04844665444,62
2490,1787651982454,1787654473270,102,-12300,-0.04692077556,62
2490,1787651982454,1787654473278,103,-11900,-0.04539489668,62
2490,1787651982454,1787654473286,104,-11500,-0.0438690178,62
2490,1787651982454,1787654473294,105,-10700,-0.040817260040000004,62
2490,1787651982454,1787654473302,106,-10000,-0.038146972,62
2490,1787651982454,1787654473310,107,-9000,-0.0343322748,62
2490,1787651982454,1787654473318,108,-8400,-0.03204345648,62
2490,1787651982454,1787654473326,109,-7400,-0.02822875928,62
2490,1787651982454,1787654473334,110,-6700,-0.025558471240000002,62
2490,1787651982454,1787654473342,111,-6200,-0.02365112264,62
2490,1787651982454,1787654473350,112,-5600,-0.02136230432,62
2490,1787651982454,1787654473358,113,-5200,-0.01983642544,62
2490,1787651982454,1787654473366,114,-4400,-0.01678466768,62
2490,1787651982454,1787654473374,115,-3700,-0.01411437964,62
2490,1787651982454,1787654473382,116,-3000,-0.011444091600000001,62
2490,1787651982454,1787654473390,117,-2900,-0.01106262188,62
2490,1787651982454,1787654473398,118,-2200,-0.00839233384,62
2490,1787651982454,1787654473406,119,-1500,-0.0057220458000000005,62
2490,1787651982454,1787654473414,120,-900,-0.00343322748,62
2490,1787651982454,1787654473422,121,-900,-0.00343322748,62
2490,1787651982454,1787654473430,122,-800,-0.00305175776,62
2490,1787651982454,1787654473438,123,-100,-0.00038146972,62
2490,1787651982454,1787654473446,124,900,0.00343322748,62
2491,1787651982454,1787654473454,0,2500,0.009536743,61
2491,1787651982454,1787654473462,1,3300,0.012588500760000001,61
2491,1787651982454,1787654473470,2,3300,0.012588500760000001,61
2491,1787651982454,1787654473478,3,3200,0.01220703104,61
2491,1787651982454,1787654473486,4,3200,0.01220703104,61
2491,1787651982454,1787654473494,5,4000,0.0152587888,61
2491,1787651982454,1787654473502,6,5300,0.02021789516,61
2491,1787651982454,1787654473510,7,5600,0.02136230432,61
2491,1787651982454,1787654473518,8,5700,0.02174377404,61
2491,1787651982454,1787654473526,9,6500,0.0247955318,61
2491,1787651982454,1787654473534,10,7200,0.02746581984,61
2491,1787651982454,1787654473542,11,7000,0.0267028804,61
2491,1787651982454,1787654473550,12,7100,0.02708435012,61
2491,1787651982454,1787654473558,13,7100,0.02708435012,61
2491,1787651982454,1787654473566,14,7500,0.028610229,61
2491,1787651982454,1787654473574,15,9000,0.0343322748,61
2491,1787651982454,1787654473582,16,13600,0.05187988192,61
2491,1787651982454,1787654473590,17,20600,0.07858276232,61
2491,1787651982454,1787654473598,18,24800,0.09460449056,61
2491,1787651982454,1787654473606,19,21900,0.08354186868,61
2491,1787651982454,1787654473614,20,13000,0.0495910636,61
2491,1787651982454,1787654473622,21,4400,0.01678466768,61
2491,1787651982454,1787654473630,22,3100,0.01182556132,61
2491,1787651982454,1787654473638,23,4200,0.01602172824,61
2491,1787651982454,1787654473646,24,6900,0.02632141068,61
2491,1787651982454,1787654473654,25,11800,0.04501342696,61
2491,1787651982454,1787654473662,26,14000,0.0534057608,61
2491,1787651982454,1787654473670,27,9600,0.03662109312,61
2491,1787651982454,1787654473678,28,-10600,-0.04043579032,61
2491,1787651982454,1787654473686,29,-18200,-0.06942748904,61
2491,1787651982454,1787654473694,30,74400,0.28381347168,61
2491,1787651982454,1787654473702,31,263700,1.00593565164,61
2491,1787651982454,1787654473710,32,390800,1.49078366576,61
2491,1787651982454,1787654473718,33,318800,1.21612546736,61
2491,1787651982454,1787654473726,34,115200,0.43945311744,61
2491,1787651982454,1787654473734,35,-30400,-0.11596679488,61
2491,1787651982454,1787654473742,36,-33700,-0.12855529564,61
2491,1787651982454,1787654473750,37,20800,0.07934570176,61
2491,1787651982454,1787654473758,38,29900,0.11405944628,61
2491,1787651982454,1787654473766,39,5800,0.02212524376,61
2491,1787651982454,1787654473774,40,900,0.00343322748,61
2491,1787651982454,1787654473782,41,6300,0.02403259236,61
2491,1787651982454,1787654473790,42,6100,0.02326965292,61
2491,1787651982454,1787654473798,43,8100,0.03089904732,61
2491,1787651982454,1787654473806,44,9800,0.03738403256,61
2491,1787651982454,1787654473814,45,11800,0.04501342696,61
2491,1787651982454,1787654473822,46,14900,0.05683898828,61
2491,1787651982454,1787654473830,47,17600,0.06713867072,61
2491,1787651982454,1787654473838,48,20500,0.0782012926,61
2491,1787651982454,1787654473846,49,23600,0.09002685392,61
2491,1787651982454,1787654473854,50,28300,0.10795593076,61
2491,1787651982454,1787654473862,51,33500,0.1277923562,61
2491,1787651982454,1787654473870,52,39400,0.15029906968,61
2491,1787651982454,1787654473878,53,46000,0.1754760712,61
2491,1787651982454,1787654473886,54,54600,0.20828246712,61
2491,1787651982454,1787654473894,55,65000,0.247955318,61
2491,1787651982454,1787654473902,56,76400,0.29144286608000003,61
2491,1787651982454,1787654473910,57,87700,0.33454894444,61
2491,1787651982454,1787654473918,58,97400,0.37155150728,61
2491,1787651982454,1787654473926,59,104100,0.39710997852,61
2491,1787651982454,1787654473934,60,108300,0.41313170676,61
2491,1787651982454,1787654473942,61,108800,0.41503905536,61
2491,1787651982454,1787654473950,62,104400,0.39825438768,61
2491,1787651982454,1787654473958,63,91700,0.34980773324000003,61
2491,1787651982454,1787654473966,64,71500,0.27275084980000003,61
2491,1787651982454,1787654473974,65,46500,0.1773834198,61
2491,1787651982454,1787654473982,66,22700,0.08659362644,61
2491,1787651982454,1787654473990,67,2700,0.010299682440000001,61
2491,1787651982454,1787654473998,68,-12400,-0.04730224528,61
2491,1787651982454,1787654474006,69,-22500,-0.085830687,61
2491,1787651982454,1787654474014,70,-28500,-0.1087188702,61
2491,1787651982454,1787654474022,71,-31400,-0.11978149208,61
2491,1787651982454,1787654474030,72,-32800,-0.12512206816000002,61
2491,1787651982454,1787654474038,73,-33600,-0.12817382592,61
2491,1787651982454,1787654474046,74,-34100,-0.13008117452,61
2491,1787651982454,1787654474054,75,-33600,-0.12817382592,61
2491,1787651982454,1787654474062,76,-33100,-0.12626647732000001,61
2491,1787651982454,1787654474070,77,-32600,-0.12435912872,61
2491,1787651982454,1787654474078,78,-31600,-0.12054443152000001,61
2491,1787651982454,1787654474086,79,-30700,-0.11711120404,61
2491,1787651982454,1787654474094,80,-29900,-0.11405944628,61
2491,1787651982454,1787654474102,81,-29000,-0.11062621880000001,61
2491,1787651982454,1787654474110,82,-27400,-0.10452270328,61
2491,1787651982454,1787654474118,83,-26000,-0.0991821272,61
2491,1787651982454,1787654474126,84,-24400,-0.09307861168,61
2491,1787651982454,1787654474134,85,-23600,-0.09002685392,61
2491,1787651982454,1787654474142,86,-23100,-0.08811950532,61
2491,1787651982454,1787654474150,87,-22200,-0.08468627784,61
2491,1787651982454,1787654474158,88,-21400,-0.08163452008000001,61
2491,1787651982454,1787654474166,89,-21000,-0.0801086412,61
2491,1787651982454,1787654474174,90,-20900,-0.07972717148,61
2491,1787651982454,1787654474182,91,-20700,-0.07896423204,61
2491,1787651982454,1787654474190,92,-20900,-0.07972717148,61
2491,1787651982454,1787654474198,93,-21400,-0.08163452008000001,61
2491,1787651982454,1787654474206,94,-21900,-0.08354186868,61
2491,1787651982454,1787654474214,95,-22300,-0.08506774756,61
2491,1787651982454,1787654474222,96,-22100,-0.08430480812,61
2491,1787651982454,1787654474230,97,-21900,-0.08354186868,61
2491,1787651982454,1787654474238,98,-21800,-0.08316039896,61
2491,1787651982454,1787654474246,99,-21600,-0.08239745952000001,61
2491,1787651982454,1787654474254,100,-21000,-0.0801086412,61
2491,1787651982454,1787654474262,101,-20000,-0.076293944,61
2491,1787651982454,1787654474270,102,-19700,-0.07514953484,61
2491,1787651982454,1787654474278,103,-19400,-0.07400512568,61
2491,1787651982454,1787654474286,104,-19100,-0.07286071652000001,61
2491,1787651982454,1787654474294,105,-18300,-0.06980895876,61
2491,1787651982454,1787654474302,106,-17800,-0.06790161016,61
2491,1787651982454,1787654474310,107,-17300,-0.06599426156,61
2491,1787651982454,1787654474318,108,-16600,-0.06332397352000001,61
2491,1787651982454,1787654474326,109,-15900,-0.060653685480000004,61
2491,1787651982454,1787654474334,110,-15300,-0.05836486716,61
2491,1787651982454,1787654474342,111,-14700,-0.05607604884,61
2491,1787651982454,1787654474350,112,-14400,-0.05493163968,61
2491,1787651982454,1787654474358,113,-13800,-0.05264282136,61
2491,1787651982454,1787654474366,114,-13100,-0.04997253332,61
2491,1787651982454,1787654474374,115,-12100,-0.046157836120000004,61
2491,1787651982454,1787654474382,116,-11500,-0.0438690178,61
2491,1787651982454,1787654474390,117,-11200,-0.04272460864,61
2491,1787651982454,1787654474398,118,-11200,-0.04272460864,61
2491,1787651982454,1787654474406,119,-10800,-0.041198729760000004,61
2491,1787651982454,1787654474414,120,-9900,-0.03776550228,61
2491,1787651982454,1787654474422,121,-9700,-0.03700256284,61
2491,1787651982454,1787654474430,122,-9700,-0.03700256284,61
2491,1787651982454,1787654474438,123,-8900,-0.03395080508,61
2491,1787651982454,1787654474446,124,-8100,-0.03089904732,61
2492,1787651982454,1787654474454,0,-7200,-0.02746581984,61
2492,1787651982454,1787654474462,1,-6500,-0.0247955318,61
2492,1787651982454,1787654474470,2,-6700,-0.025558471240000002,61
2492,1787651982454,1787654474478,3,-7200,-0.02746581984,61
2492,1787651982454,1787654474486,4,-7000,-0.0267028804,61
2492,1787651982454,1787654474494,5,-3900,-0.01487731908,61
2492,1787651982454,1787654474502,6,2400,0.00915527328,61
2492,1787651982454,1787654474510,7,8600,0.03280639592,61
2492,1787651982454,1787654474518,8,9500,0.036239623400000004,61
2492,1787651982454,1787654474526,9,3700,0.01411437964,61
2492,1787651982454,1787654474534,10,-5100,-0.01945495572,61
2492,1787651982454,1787654474542,11,-10000,-0.038146972,61
2492,1787651982454,1787654474550,12,-10400,-0.03967285088,61
2492,1787651982454,1787654474558,13,-10500,-0.0400543206,61
2492,1787651982454,1787654474566,14,-7200,-0.02746581984,61
2492,1787651982454,1787654474574,15,-2000,-0.0076293944,61
2492,1787651982454,1787654474582,16,-1200,-0.00457763664,61
2492,1787651982454,1787654474590,17,-11200,-0.04272460864,61
2492,1787651982454,1787654474598,18,-35200,-0.13427734144,61
2492,1787651982454,1787654474606,19,-12300,-0.04692077556,61
2492,1787651982454,1787654474614,20,135200,0.51574706144,61
2492,1787651982454,1787654474622,21,333800,1.2733459253600001,61
2492,1787651982454,1787654474630,22,395000,1.5068053940000001,61
2492,1787651982454,1787654474638,23,247900,0.94566343588,61
2492,1787651982454,1787654474646,24,36200,0.13809203864,61
2492,1787651982454,1787654474654,25,-60200,-0.22964477144,61
2492,1787651982454,1787654474662,26,-26800,-0.10223388496000001,61
2492,1787651982454,1787654474670,27,17200,0.06561279184,61
2492,1787651982454,1787654474678,28,4800,0.01831054656,61
2492,1787651982454,1787654474686,29,-16100,-0.06141662492,61
2492,1787651982454,1787654474694,30,-13000,-0.0495910636,61
2492,1787651982454,1787654474702,31,-9300,-0.03547668396,61
2492,1787651982454,1787654474710,32,-9500,-0.036239623400000004,61
2492,1787651982454,1787654474718,33,-6900,-0.02632141068,61
2492,1787651982454,1787654474726,34,-4900,-0.01869201628,61
2492,1787651982454,1787654474734,35,-2200,-0.00839233384,61
2492,1787651982454,1787654474742,36,700,0.00267028804,61
2492,1787651982454,1787654474750,37,3400,0.01296997048,61
2492,1787651982454,1787654474758,38,6600,0.025177001520000002,61
2492,1787651982454,1787654474766,39,10700,0.040817260040000004,61
2492,1787651982454,1787654474774,40,15700,0.05989074604,61
2492,1787651982454,1787654474782,41,20900,0.07972717148,61
2492,1787651982454,1787654474790,42,26300,0.10032653636,61
2492,1787651982454,1787654474798,43,33500,0.1277923562,61
2492,1787651982454,1787654474806,44,42100,0.16059875212,61
2492,1787651982454,1787654474814,45,53200,0.20294189104000002,61
2492,1787651982454,1787654474822,46,64900,0.24757384828,61
2492,1787651982454,1787654474830,47,76200,0.29067992664000003,61
2492,1787651982454,1787654474838,48,85400,0.32577514088,61
2492,1787651982454,1787654474846,49,91700,0.34980773324000003,61
2492,1787651982454,1787654474854,50,95000,0.362396234,61
2492,1787651982454,1787654474862,51,94700,0.36125182484,61
2492,1787651982454,1787654474870,52,87100,0.33226012612,61
2492,1787651982454,1787654474878,53,70700,0.26969909204000003,61
2492,1787651982454,1787654474886,54,47200,0.18005370784,61
2492,1787651982454,1787654474894,55,22000,0.0839233384,61
2492,1787651982454,1787654474902,56,200,0.00076293944,61
2492,1787651982454,1787654474910,57,-16400,-0.06256103408000001,61
2492,1787651982454,1787654474918,58,-27700,-0.10566711244,61
2492,1787651982454,1787654474926,59,-35100,-0.13389587172,61
2492,1787651982454,1787654474934,60,-39200,-0.14953613024,61
2492,1787651982454,1787654474942,61,-40900,-0.15602111548,61
2492,1787651982454,1787654474950,62,-41700,-0.15907287324,61
2492,1787651982454,1787654474958,63,-41900,-0.15983581268,61
2492,1787651982454,1787654474966,64,-41200,-0.15716552464,61
2492,1787651982454,1787654474974,65,-40300,-0.15373229716,61
2492,1787651982454,1787654474982,66,-39200,-0.14953613024,61
2492,1787651982454,1787654474990,67,-38700,-0.14762878164,61
2492,1787651982454,1787654474998,68,-37600,-0.14343261472,61
2492,1787651982454,1787654475006,69,-36100,-0.13771056892,61
2492,1787651982454,1787654475014,70,-34900,-0.13313293228,61
2492,1787651982454,1787654475022,71,-33400,-0.12741088648,61
2492,1787651982454,1787654475030,72,-31900,-0.12168884068000001,61
2492,1787651982454,1787654475038,73,-30700,-0.11711120404,61
2492,1787651982454,1787654475046,74,-29500,-0.1125335674,61
2492,1787651982454,1787654475054,75,-28300,-0.10795593076,61
2492,1787651982454,1787654475062,76,-27200,-0.10375976384,61
2492,1787651982454,1787654475070,77,-26200,-0.09994506664,61
2492,1787651982454,1787654475078,78,-25900,-0.09880065748,61
2492,1787651982454,1787654475086,79,-25900,-0.09880065748,61
2492,1787651982454,1787654475094,80,-25200,-0.09613036944,61
2492,1787651982454,1787654475102,81,-24600,-0.09384155112,61
2492,1787651982454,1787654475110,82,-24100,-0.09193420252000001,61
2492,1787651982454,1787654475118,83,-24100,-0.09193420252000001,61
2492,1787651982454,1787654475126,84,-24000,-0.09155273280000001,61
2492,1787651982454,1787654475134,85,-23700,-0.09040832364,61
2492,1787651982454,1787654475142,86,-23200,-0.08850097504,61
2492,1787651982454,1787654475150,87,-23000,-0.0877380356,61
2492,1787651982454,1787654475158,88,-22800,-0.08697509616,61
2492,1787651982454,1787654475166,89,-22800,-0.08697509616,61
2492,1787651982454,1787654475174,90,-22500,-0.085830687,61
2492,1787651982454,1787654475182,91,-21900,-0.08354186868,61
2492,1787651982454,1787654475190,92,-20800,-0.07934570176,61
2492,1787651982454,1787654475198,93,-20200,-0.07705688344,61
2492,1787651982454,1787654475206,94,-19300,-0.07362365596,61
2492,1787651982454,1787654475214,95,-18600,-0.07095336792,61
2492,1787651982454,1787654475222,96,-18200,-0.06942748904,61
2492,1787651982454,1787654475230,97,-17900,-0.06828307988,61
2492,1787651982454,1787654475238,98,-17200,-0.06561279184,61
2492,1787651982454,1787654475246,99,-16500,-0.06294250380000001,61
2492,1787651982454,1787654475254,100,-15800,-0.060272215760000004,61
2492,1787651982454,1787654475262,101,-15300,-0.05836486716,61
2492,1787651982454,1787654475270,102,-14700,-0.05607604884,61
2492,1787651982454,1787654475278,103,-14300,-0.05455016996,61
2492,1787651982454,1787654475286,104,-13500,-0.0514984122,61
2492,1787651982454,1787654475294,105,-13200,-0.050354003040000005,61
2492,1787651982454,1787654475302,106,-12700,-0.04844665444,61
2492,1787651982454,1787654475310,107,-12000,-0.045776366400000004,61
2492,1787651982454,1787654475318,108,-11100,-0.04234313892,61
2492,1787651982454,1787654475326,109,-10900,-0.04158019948,61
2492,1787651982454,1787654475334,110,-10700,-0.040817260040000004,61
2492,1787651982454,1787654475342,111,-10200,-0.03890991144,61
2492,1787651982454,1787654475350,112,-9200,-0.03509521424,61
2492,1787651982454,1787654475358,113,-8700,-0.03318786564,61
2492,1787651982454,1787654475366,114,-8400,-0.03204345648,61
2492,1787651982454,1787654475374,115,-8300,-0.031661986760000004,61
2492,1787651982454,1787654475382,116,-7900,-0.030136107880000002,61
2492,1787651982454,1787654475390,117,-7400,-0.02822875928,61
2492,1787651982454,1787654475398,118,-6700,-0.025558471240000002,61
2492,1787651982454,1787654475406,119,-6400,-0.02441406208,61
2492,1787651982454,1787654475414,120,-5900,-0.02250671348,61
2492,1787651982454,1787654475422,121,-5100,-0.01945495572,61
2492,1787651982454,1787654475430,122,-4300,-0.01640319796,61
2492,1787651982454,1787654475438,123,-4200,-0.01602172824,61
2492,1787651982454,1787654475446,124,-4100,-0.015640258520000002,61
2493,1787651982454,1787654475454,0,-4700,-0.01792907684,61
2493,1787651982454,1787654475462,1,-4400,-0.01678466768,61
2493,1787651982454,1787654475470,2,-2200,-0.00839233384,61
2493,1787651982454,1787654475478,3,3800,0.01449584936,61
2493,1787651982454,1787654475486,4,10500,0.0400543206,61
2493,1787651982454,1787654475494,5,11800,0.04501342696,61
2493,1787651982454,1787654475502,6,6400,0.02441406208,61
2493,1787651982454,1787654475510,7,-2500,-0.009536743,61
2493,1787651982454,1787654475518,8,-7600,-0.02899169872,61
2493,1787651982454,1787654475526,9,-8200,-0.031280517040000004,61
2493,1787651982454,1787654475534,10,-8200,-0.031280517040000004,61
2493,1787651982454,1787654475542,11,-4500,-0.0171661374,61
2493,1787651982454,1787654475550,12,700,0.00267028804,61
2493,1787651982454,1787654475558,13,1500,0.0057220458000000005,61
2493,1787651982454,1787654475566,14,-7900,-0.030136107880000002,61
2493,1787651982454,1787654475574,15,-30800,-0.11749267376,61
2493,1787651982454,1787654475582,16,-10600,-0.04043579032,61
2493,1787651982454,1787654475590,17,129800,0.49514769656,61
2493,1787651982454,1787654475598,18,324600,1.23825071112,61
2493,1787651982454,1787654475606,19,388700,1.4827728016400001,61
2493,1787651982454,1787654475614,20,248500,0.9479522542000001,61
2493,1787651982454,1787654475622,21,41000,0.1564025852,61
2493,1787651982454,1787654475630,22,-55900,-0.21324157348,61
2493,1787651982454,1787654475638,23,-24200,-0.09231567224000001,61
2493,1787651982454,1787654475646,24,19500,0.0743865954,61
2493,1787651982454,1787654475654,25,7300,0.027847289560000002,61
2493,1787651982454,1787654475662,26,-13900,-0.05302429108,61
2493,1787651982454,1787654475670,27,-10800,-0.041198729760000004,61
2493,1787651982454,1787654475678,28,-6800,-0.02593994096,61
2493,1787651982454,1787654475686,29,-7000,-0.0267028804,61
2493,1787651982454,1787654475694,30,-4400,-0.01678466768,61
2493,1787651982454,1787654475702,31,-2300,-0.00877380356,61
2493,1787651982454,1787654475710,32,-200,-0.00076293944,61
2493,1787651982454,1787654475718,33,2800,0.01068115216,61
2493,1787651982454,1787654475726,34,5700,0.02174377404,61
2493,1787651982454,1787654475734,35,9000,0.0343322748,61
2493,1787651982454,1787654475742,36,12800,0.04882812416,61
2493,1787651982454,1787654475750,37,16900,0.06446838268,61
2493,1787651982454,1787654475758,38,21500,0.08201598980000001,61
2493,1787651982454,1787654475766,39,27600,0.10528564272,61
2493,1787651982454,1787654475774,40,34400,0.13122558368,61
2493,1787651982454,1787654475782,41,43000,0.16403197960000002,61
2493,1787651982454,1787654475790,42,52700,0.20103454244,61
2493,1787651982454,1787654475798,43,64000,0.2441406208,61
2493,1787651982454,1787654475806,44,75200,0.28686522944,61
2493,1787651982454,1787654475814,45,84300,0.32157897396,61
2493,1787651982454,1787654475822,46,90800,0.34637450576,61
2493,1787651982454,1787654475830,47,94300,0.35972594596,61
2493,1787651982454,1787654475838,48,94300,0.35972594596,61
2493,1787651982454,1787654475846,49,88200,0.33645629304,61
2493,1787651982454,1787654475854,50,73500,0.2803802442,61
2493,1787651982454,1787654475862,51,51700,0.19721984524,61
2493,1787651982454,1787654475870,52,27500,0.104904173,61
2493,1787651982454,1787654475878,53,6000,0.022888183200000002,61
2493,1787651982454,1787654475886,54,-11100,-0.04234313892,61
2493,1787651982454,1787654475894,55,-23900,-0.09117126308000001,61
2493,1787651982454,1787654475902,56,-31900,-0.12168884068000001,61
2493,1787651982454,1787654475910,57,-36400,-0.13885497808,61
2493,1787651982454,1787654475918,58,-38200,-0.14572143304000001,61
2493,1787651982454,1787654475926,59,-39000,-0.1487731908,61
2493,1787651982454,1787654475934,60,-39100,-0.14915466052,61
2493,1787651982454,1787654475942,61,-38600,-0.14724731192,61
2493,1787651982454,1787654475950,62,-37900,-0.14457702388000002,61
2493,1787651982454,1787654475958,63,-37300,-0.14228820556,61
2493,1787651982454,1787654475966,64,-36600,-0.13961791752,61
2493,1787651982454,1787654475974,65,-35800,-0.13656615976,61
2493,1787651982454,1787654475982,66,-34300,-0.13084411396,61
2493,1787651982454,1787654475990,67,-32400,-0.12359618928,61
2493,1787651982454,1787654475998,68,-30900,-0.11787414348,61
2493,1787651982454,1787654476006,69,-30100,-0.11482238572,61
2493,1787651982454,1787654476014,70,-29400,-0.11215209768,61
2493,1787651982454,1787654476022,71,-28400,-0.10833740048,61
2493,1787651982454,1787654476030,72,-27200,-0.10375976384,61
2493,1787651982454,1787654476038,73,-25900,-0.09880065748,61
2493,1787651982454,1787654476046,74,-24900,-0.09498596028,61
2493,1787651982454,1787654476054,75,-24400,-0.09307861168,61
2493,1787651982454,1787654476062,76,-24200,-0.09231567224000001,61
2493,1787651982454,1787654476070,77,-24300,-0.09269714196,61
2493,1787651982454,1787654476078,78,-24300,-0.09269714196,61
2493,1787651982454,1787654476086,79,-24200,-0.09231567224000001,61
2493,1787651982454,1787654476094,80,-24000,-0.09155273280000001,61
2493,1787651982454,1787654476102,81,-23800,-0.09078979336,61
2493,1787651982454,1787654476110,82,-23700,-0.09040832364,61
2493,1787651982454,1787654476118,83,-23900,-0.09117126308000001,61
2493,1787651982454,1787654476126,84,-23700,-0.09040832364,61
2493,1787651982454,1787654476134,85,-23300,-0.08888244476,61
2493,1787651982454,1787654476142,86,-23000,-0.0877380356,61
2493,1787651982454,1787654476150,87,-22500,-0.085830687,61
2493,1787651982454,1787654476158,88,-22000,-0.0839233384,61
2493,1787651982454,1787654476166,89,-21500,-0.08201598980000001,61
2493,1787651982454,1787654476174,90,-21300,-0.08125305036,61
2493,1787651982454,1787654476182,91,-20800,-0.07934570176,61
2493,1787651982454,1787654476190,92,-20300,-0.07743835316,61
2493,1787651982454,1787654476198,93,-19600,-0.07476806512,61
2493,1787651982454,1787654476206,94,-18600,-0.07095336792,61
2493,1787651982454,1787654476214,95,-18200,-0.06942748904,61
2493,1787651982454,1787654476222,96,-18100,-0.06904601932,61
2493,1787651982454,1787654476230,97,-17700,-0.06752014044,61
2493,1787651982454,1787654476238,98,-17000,-0.0648498524,61
2493,1787651982454,1787654476246,99,-16300,-0.06217956436,61
2493,1787651982454,1787654476254,100,-15800,-0.060272215760000004,61
2493,1787651982454,1787654476262,101,-15700,-0.05989074604,61
2493,1787651982454,1787654476270,102,-15500,-0.0591278066,61
2493,1787651982454,1787654476278,103,-15100,-0.05760192772,61
2493,1787651982454,1787654476286,104,-14800,-0.05645751856,61
2493,1787651982454,1787654476294,105,-14300,-0.05455016996,61
2493,1787651982454,1787654476302,106,-13400,-0.051116942480000004,61
2493,1787651982454,1787654476310,107,-12700,-0.04844665444,61
2493,1787651982454,1787654476318,108,-12200,-0.04653930584,61
2493,1787651982454,1787654476326,109,-11800,-0.04501342696,61
2493,1787651982454,1787654476334,110,-11600,-0.04425048752,61
2493,1787651982454,1787654476342,111,-11200,-0.04272460864,61
2493,1787651982454,1787654476350,112,-10800,-0.041198729760000004,61
2493,1787651982454,1787654476358,113,-10500,-0.0400543206,61
2493,1787651982454,1787654476366,114,-10100,-0.03852844172,61
2493,1787651982454,1787654476374,115,-9800,-0.03738403256,61
2493,1787651982454,1787654476382,116,-9300,-0.03547668396,61
2493,1787651982454,1787654476390,117,-9000,-0.0343322748,61
2493,1787651982454,1787654476398,118,-8600,-0.03280639592,61
2493,1787651982454,1787654476406,119,-8300,-0.031661986760000004,61
2493,1787651982454,1787654476414,120,-7800,-0.02975463816,61
2493,1787651982454,1787654476422,121,-7800,-0.02975463816,61
2493,1787651982454,1787654476430,122,-7500,-0.028610229,61
2493,1787651982454,1787654476438,123,-7200,-0.02746581984,61
2493,1787651982454,1787654476446,124,-6900,-0.02632141068,61
2494,1787651982454,1787654476454,0,-6300,-0.02403259236,58
2494,1787651982454,1787654476462,1,-6200,-0.02365112264,58
2494,1787651982454,1787654476470,2,-6400,-0.02441406208,58
2494,1787651982454,1787654476478,3,-6000,-0.022888183200000002,58
2494,1787651982454,1787654476486,4,-3000,-0.011444091600000001,58
2494,1787651982454,1787654476494,5,2600,0.00991821272,58
2494,1787651982454,1787654476502,6,8500,0.0324249262,58
2494,1787651982454,1787654476510,7,10100,0.03852844172,58
2494,1787651982454,1787654476518,8,6000,0.022888183200000002,58
2494,1787651982454,1787654476526,9,-2700,-0.010299682440000001,58
2494,1787651982454,1787654476534,10,-9400,-0.03585815368,58
2494,1787651982454,1787654476542,11,-11000,-0.0419616692,58
2494,1787651982454,1787654476550,12,-10500,-0.0400543206,58
2494,1787651982454,1787654476558,13,-8600,-0.03280639592,58
2494,1787651982454,1787654476566,14,-3900,-0.01487731908,58
2494,1787651982454,1787654476574,15,-2000,-0.0076293944,58
2494,1787651982454,1787654476582,16,-5500,-0.0209808346,58
2494,1787651982454,1787654476590,17,-22600,-0.08621215672,58
2494,1787651982454,1787654476598,18,-23900,-0.09117126308000001,58
2494,1787651982454,1787654476606,19,68200,0.26016234904,58
2494,1787651982454,1787654476614,20,240500,0.9174346766,58
2494,1787651982454,1787654476622,21,342300,1.30577085156,58
2494,1787651982454,1787654476630,22,260900,0.99525449948,58
2494,1787651982454,1787654476638,23,72400,0.27618407728,58
2494,1787651982454,1787654476646,24,-49600,-0.18920898112,58
2494,1787651982454,1787654476654,25,-41000,-0.1564025852,58
2494,1787651982454,1787654476662,26,9800,0.03738403256,58
2494,1787651982454,1787654476670,27,14300,0.05455016996,58
2494,1787651982454,1787654476678,28,-8700,-0.03318786564,58
2494,1787651982454,1787654476686,29,-11500,-0.0438690178,58
2494,1787651982454,1787654476694,30,-6100,-0.02326965292,58
2494,1787651982454,1787654476702,31,-6000,-0.022888183200000002,58
2494,1787651982454,1787654476710,32,-4400,-0.01678466768,58
2494,1787651982454,1787654476718,33,-1700,-0.00648498524,58
2494,1787651982454,1787654476726,34,400,0.00152587888,58
2494,1787651982454,1787654476734,35,3600,0.01373290992,58
2494,1787651982454,1787654476742,36,6200,0.02365112264,58
2494,1787651982454,1787654476750,37,9200,0.03509521424,58
2494,1787651982454,1787654476758,38,12600,0.04806518472,58
2494,1787651982454,1787654476766,39,16400,0.06256103408000001,58
2494,1787651982454,1787654476774,40,21100,0.08049011092,58
2494,1787651982454,1787654476782,41,26300,0.10032653636,58
2494,1787651982454,1787654476790,42,32300,0.12321471956,58
2494,1787651982454,1787654476798,43,40000,0.152587888,58
2494,1787651982454,1787654476806,44,49800,0.18997192056,58
2494,1787651982454,1787654476814,45,61200,0.23345946864,58
2494,1787651982454,1787654476822,46,71900,0.27427672868,58
2494,1787651982454,1787654476830,47,81000,0.3089904732,58
2494,1787651982454,1787654476838,48,87800,0.33493041416,58
2494,1787651982454,1787654476846,49,91800,0.35018920296,58
2494,1787651982454,1787654476854,50,93600,0.35705565792,58
2494,1787651982454,1787654476862,51,90300,0.34446715716,58
2494,1787651982454,1787654476870,52,80300,0.30632018516,58
2494,1787651982454,1787654476878,53,62400,0.23803710528,58
2494,1787651982454,1787654476886,54,39800,0.15182494856,58
2494,1787651982454,1787654476894,55,17000,0.0648498524,58
2494,1787651982454,1787654476902,56,-1800,-0.00686645496,58
2494,1787651982454,1787654476910,57,-15200,-0.05798339744,58
2494,1787651982454,1787654476918,58,-24800,-0.09460449056,58
2494,1787651982454,1787654476926,59,-31000,-0.1182556132,58
2494,1787651982454,1787654476934,60,-34200,-0.13046264424,58
2494,1787651982454,1787654476942,61,-35500,-0.1354217506,58
2494,1787651982454,1787654476950,62,-35300,-0.13465881116,58
2494,1787651982454,1787654476958,63,-34500,-0.1316070534,58
2494,1787651982454,1787654476966,64,-33900,-0.12931823508,58
2494,1787651982454,1787654476974,65,-33900,-0.12931823508,58
2494,1787651982454,1787654476982,66,-33400,-0.12741088648,58
2494,1787651982454,1787654476990,67,-31500,-0.12016296180000001,58
2494,1787651982454,1787654476998,68,-29600,-0.11291503712,58
2494,1787651982454,1787654477006,69,-27800,-0.10604858216,58
2494,1787651982454,1787654477014,70,-26600,-0.10147094552000001,58
2494,1787651982454,1787654477022,71,-25400,-0.09689330888,58
2494,1787651982454,1787654477030,72,-24300,-0.09269714196,58
2494,1787651982454,1787654477038,73,-22700,-0.08659362644,58
2494,1787651982454,1787654477046,74,-21600,-0.08239745952000001,58
2494,1787651982454,1787654477054,75,-20800,-0.07934570176,58
2494,1787651982454,1787654477062,76,-19700,-0.07514953484,58
2494,1787651982454,1787654477070,77,-19000,-0.07247924680000001,58
2494,1787651982454,1787654477078,78,-18500,-0.0705718982,58
2494,1787651982454,1787654477086,79,-18400,-0.07019042848,58
2494,1787651982454,1787654477094,80,-18200,-0.06942748904,58
2494,1787651982454,1787654477102,81,-18200,-0.06942748904,58
2494,1787651982454,1787654477110,82,-17300,-0.06599426156,58
2494,1787651982454,1787654477118,83,-17400,-0.06637573128,58
2494,1787651982454,1787654477126,84,-17400,-0.06637573128,58
2494,1787651982454,1787654477134,85,-17100,-0.06523132212,58
2494,1787651982454,1787654477142,86,-16100,-0.06141662492,58
2494,1787651982454,1787654477150,87,-15600,-0.05950927632,58
2494,1787651982454,1787654477158,88,-15400,-0.05874633688,58
2494,1787651982454,1787654477166,89,-15300,-0.05836486716,58
2494,1787651982454,1787654477174,90,-14400,-0.05493163968,58
2494,1787651982454,1787654477182,91,-13900,-0.05302429108,58
2494,1787651982454,1787654477190,92,-13500,-0.0514984122,58
2494,1787651982454,1787654477198,93,-13200,-0.050354003040000005,58
2494,1787651982454,1787654477206,94,-12300,-0.04692077556,58
2494,1787651982454,1787654477214,95,-11100,-0.04234313892,58
2494,1787651982454,1787654477222,96,-10000,-0.038146972,58
2494,1787651982454,1787654477230,97,-9100,-0.03471374452,58
2494,1787651982454,1787654477238,98,-8500,-0.0324249262,58
2494,1787651982454,1787654477246,99,-8200,-0.031280517040000004,58
2494,1787651982454,1787654477254,100,-8100,-0.03089904732,58
2494,1787651982454,1787654477262,101,-7400,-0.02822875928,58
2494,1787651982454,1787654477270,102,-6900,-0.02632141068,58
2494,1787651982454,1787654477278,103,-6600,-0.025177001520000002,58
2494,1787651982454,1787654477286,104,-5800,-0.02212524376,58
2494,1787651982454,1787654477294,105,-4700,-0.01792907684,58
2494,1787651982454,1787654477302,106,-4000,-0.0152587888,58
2494,1787651982454,1787654477310,107,-4000,-0.0152587888,58
2494,1787651982454,1787654477318,108,-3800,-0.01449584936,58
2494,1787651982454,1787654477326,109,-3300,-0.012588500760000001,58
2494,1787651982454,1787654477334,110,-2500,-0.009536743,58
2494,1787651982454,1787654477342,111,-2000,-0.0076293944,58
2494,1787651982454,1787654477350,112,-1500,-0.0057220458000000005,58
2494,1787651982454,1787654477358,113,-600,-0.00228881832,58
2494,1787651982454,1787654477366,114,400,0.00152587888,58
2494,1787651982454,1787654477374,115,600,0.00228881832,58
2494,1787651982454,1787654477382,116,400,0.00152587888,58
2494,1787651982454,1787654477390,117,700,0.00267028804,58
2494,1787651982454,1787654477398,118,1200,0.00457763664,58
2494,1787651982454,1787654477406,119,2100,0.00801086412,58
2494,1787651982454,1787654477414,120,2800,0.01068115216,58
2494,1787651982454,1787654477422,121,3900,0.01487731908,58
2494,1787651982454,1787654477430,122,4200,0.01602172824,58
2494,1787651982454,1787654477438,123,4200,0.01602172824,58
2494,1787651982454,1787654477446,124,4000,0.0152587888,58
2495,1787651982454,1787654477454,0,4100,0.015640258520000002,58
2495,1787651982454,1787654477462,1,4000,0.0152587888,58
2495,1787651982454,1787654477470,2,5100,0.01945495572,58
2495,1787651982454,1787654477478,3,8300,0.031661986760000004,58
2495,1787651982454,1787654477486,4,15100,0.05760192772,58
2495,1787651982454,1787654477494,5,21200,0.08087158064,58
2495,1787651982454,1787654477502,6,21200,0.08087158064,58
2495,1787651982454,1787654477510,7,14200,0.05416870024,58
2495,1787651982454,1787654477518,8,5600,0.02136230432,58
2495,1787651982454,1787654477526,9,1400,0.00534057608,58
2495,1787651982454,1787654477534,10,1700,0.00648498524,58
2495,1787651982454,1787654477542,11,1900,0.00724792468,58
2495,1787651982454,1787654477550,12,5500,0.0209808346,58
2495,1787651982454,1787654477558,13,9700,0.03700256284,58
2495,1787651982454,1787654477566,14,9100,0.03471374452,58
2495,1787651982454,1787654477574,15,-2000,-0.0076293944,58
2495,1787651982454,1787654477582,16,-22600,-0.08621215672,58
2495,1787651982454,1787654477590,17,14100,0.05378723052,58
2495,1787651982454,1787654477598,18,165400,0.63095091688,58
2495,1787651982454,1787654477606,19,334500,1.2760162134,58
2495,1787651982454,1787654477614,20,352300,1.34391782356,58
2495,1787651982454,1787654477622,21,190500,0.7266998166,58
2495,1787651982454,1787654477630,22,6400,0.02441406208,58
2495,1787651982454,1787654477638,23,-52400,-0.19989013328,58
2495,1787651982454,1787654477646,24,-6100,-0.02326965292,58
2495,1787651982454,1787654477654,25,29900,0.11405944628,58
2495,1787651982454,1787654477662,26,13800,0.05264282136,58
2495,1787651982454,1787654477670,27,-800,-0.00305175776,58
2495,1787651982454,1787654477678,28,4300,0.01640319796,58
2495,1787651982454,1787654477686,29,5600,0.02136230432,58
2495,1787651982454,1787654477694,30,6100,0.02326965292,58
2495,1787651982454,1787654477702,31,9200,0.03509521424,58
2495,1787651982454,1787654477710,32,11300,0.04310607836,58
2495,1787651982454,1787654477718,33,13800,0.05264282136,58
2495,1787651982454,1787654477726,34,15600,0.05950927632,58
2495,1787651982454,1787654477734,35,18400,0.07019042848,58
2495,1787651982454,1787654477742,36,22500,0.085830687,58
2495,1787651982454,1787654477750,37,27000,0.1029968244,58
2495,1787651982454,1787654477758,38,31500,0.12016296180000001,58
2495,1787651982454,1787654477766,39,36800,0.14038085696,58
2495,1787651982454,1787654477774,40,43100,0.16441344932000002,58
2495,1787651982454,1787654477782,41,50800,0.19378661776,58
2495,1787651982454,1787654477790,42,60300,0.23002624116,58
2495,1787651982454,1787654477798,43,71000,0.2708435012,58
2495,1787651982454,1787654477806,44,82700,0.31547545844,58
2495,1787651982454,1787654477814,45,93500,0.3566741882,58
2495,1787651982454,1787654477822,46,102500,0.391006463,58
2495,1787651982454,1787654477830,47,108400,0.41351317648,58
2495,1787651982454,1787654477838,48,110900,0.42304991948000004,58
2495,1787651982454,1787654477846,49,109500,0.4177093434,58
2495,1787651982454,1787654477854,50,102100,0.38948058412000003,58
2495,1787651982454,1787654477862,51,86600,0.33035277752000003,58
2495,1787651982454,1787654477870,52,64000,0.2441406208,58
2495,1787651982454,1787654477878,53,39100,0.14915466052,58
2495,1787651982454,1787654477886,54,16100,0.06141662492,58
2495,1787651982454,1787654477894,55,-2100,-0.00801086412,58
2495,1787651982454,1787654477902,56,-15100,-0.05760192772,58
2495,1787651982454,1787654477910,57,-24100,-0.09193420252000001,58
2495,1787651982454,1787654477918,58,-29100,-0.11100768852000001,58
2495,1787651982454,1787654477926,59,-31400,-0.11978149208,58
2495,1787651982454,1787654477934,60,-32300,-0.12321471956,58
2495,1787651982454,1787654477942,61,-32900,-0.12550353788000002,58
2495,1787651982454,1787654477950,62,-33400,-0.12741088648,58
2495,1787651982454,1787654477958,63,-33600,-0.12817382592,58
2495,1787651982454,1787654477966,64,-33300,-0.12702941676,58
2495,1787651982454,1787654477974,65,-31800,-0.12130737096000001,58
2495,1787651982454,1787654477982,66,-30300,-0.11558532516,58
2495,1787651982454,1787654477990,67,-29900,-0.11405944628,58
2495,1787651982454,1787654477998,68,-29500,-0.1125335674,58
2495,1787651982454,1787654478006,69,-28400,-0.10833740048,58
2495,1787651982454,1787654478014,70,-26800,-0.10223388496000001,58
2495,1787651982454,1787654478022,71,-25100,-0.09574889972,58
2495,1787651982454,1787654478030,72,-24100,-0.09193420252000001,58
2495,1787651982454,1787654478038,73,-23300,-0.08888244476,58
2495,1787651982454,1787654478046,74,-22900,-0.08735656588,58
2495,1787651982454,1787654478054,75,-22300,-0.08506774756,58
2495,1787651982454,1787654478062,76,-22100,-0.08430480812,58
2495,1787651982454,1787654478070,77,-21900,-0.08354186868,58
2495,1787651982454,1787654478078,78,-21800,-0.08316039896,58
2495,1787651982454,1787654478086,79,-22000,-0.0839233384,58
2495,1787651982454,1787654478094,80,-21900,-0.08354186868,58
2495,1787651982454,1787654478102,81,-22000,-0.0839233384,58
2495,1787651982454,1787654478110,82,-22500,-0.085830687,58
2495,1787651982454,1787654478118,83,-22800,-0.08697509616,58
2495,1787651982454,1787654478126,84,-22800,-0.08697509616,58
2495,1787651982454,1787654478134,85,-22900,-0.08735656588,58
2495,1787651982454,1787654478142,86,-22500,-0.085830687,58
2495,1787651982454,1787654478150,87,-22200,-0.08468627784,58
2495,1787651982454,1787654478158,88,-22000,-0.0839233384,58
2495,1787651982454,1787654478166,89,-21900,-0.08354186868,58
2495,1787651982454,1787654478174,90,-21400,-0.08163452008000001,58
2495,1787651982454,1787654478182,91,-20800,-0.07934570176,58
2495,1787651982454,1787654478190,92,-20100,-0.07667541372,58
2495,1787651982454,1787654478198,93,-19800,-0.07553100456,58
2495,1787651982454,1787654478206,94,-19500,-0.0743865954,58
2495,1787651982454,1787654478214,95,-18700,-0.07133483764,58
2495,1787651982454,1787654478222,96,-18000,-0.0686645496,58
2495,1787651982454,1787654478230,97,-17500,-0.066757201,58
2495,1787651982454,1787654478238,98,-17000,-0.0648498524,58
2495,1787651982454,1787654478246,99,-16600,-0.06332397352000001,58
2495,1787651982454,1787654478254,100,-16200,-0.06179809464,58
2495,1787651982454,1787654478262,101,-15900,-0.060653685480000004,58
2495,1787651982454,1787654478270,102,-15600,-0.05950927632,58
2495,1787651982454,1787654478278,103,-15000,-0.057220458,58
2495,1787651982454,1787654478286,104,-14400,-0.05493163968,58
2495,1787651982454,1787654478294,105,-14000,-0.0534057608,58
2495,1787651982454,1787654478302,106,-13500,-0.0514984122,58
2495,1787651982454,1787654478310,107,-13200,-0.050354003040000005,58
2495,1787651982454,1787654478318,108,-12300,-0.04692077556,58
2495,1787651982454,1787654478326,109,-11200,-0.04272460864,58
2495,1787651982454,1787654478334,110,-10500,-0.0400543206,58
2495,1787651982454,1787654478342,111,-10200,-0.03890991144,58
2495,1787651982454,1787654478350,112,-10500,-0.0400543206,58
2495,1787651982454,1787654478358,113,-10300,-0.03929138116,58
2495,1787651982454,1787654478366,114,-10200,-0.03890991144,58
2495,1787651982454,1787654478374,115,-9500,-0.036239623400000004,58
2495,1787651982454,1787654478382,116,-6200,-0.02365112264,58
2495,1787651982454,1787654478390,117,300,0.00114440916,58
2495,1787651982454,1787654478398,118,6900,0.02632141068,58
2495,1787651982454,1787654478406,119,7300,0.027847289560000002,58
2495,1787651982454,1787654478414,120,600,0.00228881832,58
2495,1787651982454,1787654478422,121,-8900,-0.03395080508,58
2495,1787651982454,1787654478430,122,-13400,-0.051116942480000004,58
2495,1787651982454,1787654478438,123,-13300,-0.050735472760000004,58
2495,1787651982454,1787654478446,124,-12500,-0.047683715,58
2496,1787651982454,1787654478454,0,-8600,-0.03280639592,58
2496,1787651982454,1787654478462,1,-4000,-0.0152587888,58
2496,1787651982454,1787654478470,2,-5000,-0.019073486,58
2496,1787651982454,1787654478478,3,-16700,-0.06370544324,58
2496,1787651982454,1787654478486,4,-37700,-0.14381408444000002,58
2496,1787651982454,1787654478494,5,-1700,-0.00648498524,58
2496,1787651982454,1787654478502,6,153300,0.58479308076,58
2496,1787651982454,1787654478510,7,334600,1.2763976831200001,58
2496,1787651982454,1787654478518,8,363200,1.38549802304,58
2496,1787651982454,1787654478526,9,200500,0.7648467886,58
2496,1787651982454,1787654478534,10,4300,0.01640319796,58
2496,1787651982454,1787654478542,11,-66400,-0.25329589408000003,58
2496,1787651982454,1787654478550,12,-22500,-0.085830687,58
2496,1787651982454,1787654478558,13,15500,0.0591278066,58
2496,1787651982454,1787654478566,14,-700,-0.00267028804,58
2496,1787651982454,1787654478574,15,-18000,-0.0686645496,58
2496,1787651982454,1787654478582,16,-13600,-0.05187988192,58
2496,1787651982454,1787654478590,17,-11000,-0.0419616692,58
2496,1787651982454,1787654478598,18,-10400,-0.03967285088,58
2496,1787651982454,1787654478606,19,-7700,-0.02937316844,58
2496,1787651982454,1787654478614,20,-5700,-0.02174377404,58
2496,1787651982454,1787654478622,21,-3000,-0.011444091600000001,58
2496,1787651982454,1787654478630,22,-100,-0.00038146972,58
2496,1787651982454,1787654478638,23,2800,0.01068115216,58
2496,1787651982454,1787654478646,24,6800,0.02593994096,58
2496,1787651982454,1787654478654,25,11000,0.0419616692,58
2496,1787651982454,1787654478662,26,15200,0.05798339744,58
2496,1787651982454,1787654478670,27,20100,0.07667541372,58
2496,1787651982454,1787654478678,28,26500,0.10108947580000001,58
2496,1787651982454,1787654478686,29,34100,0.13008117452,58
2496,1787651982454,1787654478694,30,43500,0.1659393282,58
2496,1787651982454,1787654478702,31,54100,0.20637511852,58
2496,1787651982454,1787654478710,32,65500,0.2498626666,58
2496,1787651982454,1787654478718,33,76300,0.29106139636,58
2496,1787651982454,1787654478726,34,85000,0.324249262,58
2496,1787651982454,1787654478734,35,91300,0.34828185436000003,58
2496,1787651982454,1787654478742,36,95000,0.362396234,58
2496,1787651982454,1787654478750,37,94000,0.3585815368,58
2496,1787651982454,1787654478758,38,86100,0.32844542892,58
2496,1787651982454,1787654478766,39,69700,0.26588439484,58
2496,1787651982454,1787654478774,40,46000,0.1754760712,58
2496,1787651982454,1787654478782,41,21000,0.0801086412,58
2496,1787651982454,1787654478790,42,-800,-0.00305175776,58
2496,1787651982454,1787654478798,43,-17400,-0.06637573128,58
2496,1787651982454,1787654478806,44,-29400,-0.11215209768,58
2496,1787651982454,1787654478814,45,-36200,-0.13809203864,58
2496,1787651982454,1787654478822,46,-40200,-0.15335082744,58
2496,1787651982454,1787654478830,47,-43000,-0.16403197960000002,58
2496,1787651982454,1787654478838,48,-43500,-0.1659393282,58
2496,1787651982454,1787654478846,49,-43600,-0.16632079792,58
2496,1787651982454,1787654478854,50,-42800,-0.16326904016000002,58
2496,1787651982454,1787654478862,51,-42900,-0.16365050988000002,58
2496,1787651982454,1787654478870,52,-42900,-0.16365050988000002,58
2496,1787651982454,1787654478878,53,-42300,-0.16136169156,58
2496,1787651982454,1787654478886,54,-40800,-0.15563964576,58
2496,1787651982454,1787654478894,55,-39300,-0.14991759996,58
2496,1787651982454,1787654478902,56,-38800,-0.14801025136,58
2496,1787651982454,1787654478910,57,-38700,-0.14762878164,58
2496,1787651982454,1787654478918,58,-38000,-0.14495849360000002,58
2496,1787651982454,1787654478926,59,-36900,-0.14076232668,58
2496,1787651982454,1787654478934,60,-35600,-0.13580322032,58
2496,1787651982454,1787654478942,61,-34700,-0.13236999284,58
2496,1787651982454,1787654478950,62,-34500,-0.1316070534,58
2496,1787651982454,1787654478958,63,-34300,-0.13084411396,58
2496,1787651982454,1787654478966,64,-34400,-0.13122558368,58
2496,1787651982454,1787654478974,65,-33900,-0.12931823508,58
2496,1787651982454,1787654478982,66,-34200,-0.13046264424,58
2496,1787651982454,1787654478990,67,-34000,-0.1296997048,58
2496,1787651982454,1787654478998,68,-33800,-0.12893676536,58
2496,1787651982454,1787654479006,69,-33400,-0.12741088648,58
2496,1787651982454,1787654479014,70,-33300,-0.12702941676,58
2496,1787651982454,1787654479022,71,-33900,-0.12931823508,58
2496,1787651982454,1787654479030,72,-33700,-0.12855529564,58
2496,1787651982454,1787654479038,73,-33100,-0.12626647732000001,58
2496,1787651982454,1787654479046,74,-32800,-0.12512206816000002,58
2496,1787651982454,1787654479054,75,-32800,-0.12512206816000002,58
2496,1787651982454,1787654479062,76,-33100,-0.12626647732000001,58
2496,1787651982454,1787654479070,77,-32500,-0.123977659,58
2496,1787651982454,1787654479078,78,-31200,-0.11901855264,58
2496,1787651982454,1787654479086,79,-30400,-0.11596679488,58
2496,1787651982454,1787654479094,80,-30000,-0.114440916,58
2496,1787651982454,1787654479102,81,-29900,-0.11405944628,58
2496,1787651982454,1787654479110,82,-29100,-0.11100768852000001,58
2496,1787651982454,1787654479118,83,-28200,-0.10757446104,58
2496,1787651982454,1787654479126,84,-27600,-0.10528564272,58
2496,1787651982454,1787654479134,85,-27400,-0.10452270328,58
2496,1787651982454,1787654479142,86,-26600,-0.10147094552000001,58
2496,1787651982454,1787654479150,87,-26000,-0.0991821272,58
2496,1787651982454,1787654479158,88,-25200,-0.09613036944,58
2496,1787651982454,1787654479166,89,-25000,-0.09536743,58
2496,1787651982454,1787654479174,90,-24500,-0.0934600814,58
2496,1787651982454,1787654479182,91,-23900,-0.09117126308000001,58
2496,1787651982454,1787654479190,92,-22800,-0.08697509616,58
2496,1787651982454,1787654479198,93,-21800,-0.08316039896,58
2496,1787651982454,1787654479206,94,-21100,-0.08049011092,58
2496,1787651982454,1787654479214,95,-20100,-0.07667541372,58
2496,1787651982454,1787654479222,96,-19300,-0.07362365596,58
2496,1787651982454,1787654479230,97,-18700,-0.07133483764,58
2496,1787651982454,1787654479238,98,-18300,-0.06980895876,58
2496,1787651982454,1787654479246,99,-18000,-0.0686645496,58
2496,1787651982454,1787654479254,100,-17300,-0.06599426156,58
2496,1787651982454,1787654479262,101,-16100,-0.06141662492,58
2496,1787651982454,1787654479270,102,-15200,-0.05798339744,58
2496,1787651982454,1787654479278,103,-15100,-0.05760192772,58
2496,1787651982454,1787654479286,104,-15100,-0.05760192772,58
2496,1787651982454,1787654479294,105,-14500,-0.055313109400000005,58
2496,1787651982454,1787654479302,106,-13300,-0.050735472760000004,58
2496,1787651982454,1787654479310,107,-12300,-0.04692077556,58
2496,1787651982454,1787654479318,108,-11500,-0.0438690178,58
2496,1787651982454,1787654479326,109,-12300,-0.04692077556,58
2496,1787651982454,1787654479334,110,-13000,-0.0495910636,58
2496,1787651982454,1787654479342,111,-11900,-0.04539489668,58
2496,1787651982454,1787654479350,112,-8000,-0.0305175776,58
2496,1787651982454,1787654479358,113,-1300,-0.00495910636,58
2496,1787651982454,1787654479366,114,4500,0.0171661374,58
2496,1787651982454,1787654479374,115,4000,0.0152587888,58
2496,1787651982454,1787654479382,116,-3100,-0.01182556132,58
2496,1787651982454,1787654479390,117,-12200,-0.04653930584,58
2496,1787651982454,1787654479398,118,-15400,-0.05874633688,58
2496,1787651982454,1787654479406,119,-14900,-0.05683898828,58
2496,1787651982454,1787654479414,120,-13500,-0.0514984122,58
2496,1787651982454,1787654479422,121,-8700,-0.03318786564,58
2496,1787651982454,1787654479430,122,-4800,-0.01831054656,58
2496,1787651982454,1787654479438,123,-5900,-0.02250671348,58
2496,1787651982454,1787654479446,124,-20000,-0.076293944,58
2497,1787651982454,1787654479454,0,-36400,-0.13885497808,58
2497,1787651982454,1787654479462,1,19900,0.07591247428,58
2497,1787651982454,1787654479470,2,183600,0.70037840592,58
2497,1787651982454,1787654479478,3,334600,1.2763976831200001,58
2497,1787651982454,1787654479486,4,317500,1.211166361,58
2497,1787651982454,1787654479494,5,142200,0.5424499418400001,58
2497,1787651982454,1787654479502,6,-22400,-0.08544921728,58
2497,1787651982454,1787654479510,7,-55700,-0.21247863404,58
2497,1787651982454,1787654479518,8,-4800,-0.01831054656,58
2497,1787651982454,1787654479526,9,18800,0.07171630736,58
2497,1787651982454,1787654479534,10,-2700,-0.010299682440000001,58
2497,1787651982454,1787654479542,11,-14000,-0.0534057608,58
2497,1787651982454,1787654479550,12,-7900,-0.030136107880000002,58
2497,1787651982454,1787654479558,13,-6000,-0.022888183200000002,58
2497,1787651982454,1787654479566,14,-4700,-0.01792907684,58
2497,1787651982454,1787654479574,15,-2600,-0.00991821272,58
2497,1787651982454,1787654479582,16,-500,-0.0019073486,58
2497,1787651982454,1787654479590,17,2700,0.010299682440000001,58
2497,1787651982454,1787654479598,18,5600,0.02136230432,58
2497,1787651982454,1787654479606,19,8200,0.031280517040000004,58
2497,1787651982454,1787654479614,20,11000,0.0419616692,58
2497,1787651982454,1787654479622,21,14800,0.05645751856,58
2497,1787651982454,1787654479630,22,19500,0.0743865954,58
2497,1787651982454,1787654479638,23,25300,0.09651183916,58
2497,1787651982454,1787654479646,24,31500,0.12016296180000001,58
2497,1787651982454,1787654479654,25,38300,0.14610290276000001,58
2497,1787651982454,1787654479662,26,47400,0.18081664728,58
2497,1787651982454,1787654479670,27,57600,0.21972655872,58
2497,1787651982454,1787654479678,28,69400,0.26473998568,58
2497,1787651982454,1787654479686,29,79900,0.30479430628,58
2497,1787651982454,1787654479694,30,87800,0.33493041416,58
2497,1787651982454,1787654479702,31,92700,0.35362243044,58
2497,1787651982454,1787654479710,32,95100,0.36277770372,58
2497,1787651982454,1787654479718,33,93600,0.35705565792,58
2497,1787651982454,1787654479726,34,86000,0.32806395920000003,58
2497,1787651982454,1787654479734,35,69500,0.2651214554,58
2497,1787651982454,1787654479742,36,46000,0.1754760712,58
2497,1787651982454,1787654479750,37,22100,0.08430480812,58
2497,1787651982454,1787654479758,38,2300,0.00877380356,58
2497,1787651982454,1787654479766,39,-13100,-0.04997253332,58
2497,1787651982454,1787654479774,40,-23700,-0.09040832364,58
2497,1787651982454,1787654479782,41,-30500,-0.1163482646,58
2497,1787651982454,1787654479790,42,-34300,-0.13084411396,58
2497,1787651982454,1787654479798,43,-35200,-0.13427734144,58
2497,1787651982454,1787654479806,44,-35200,-0.13427734144,58
2497,1787651982454,1787654479814,45,-35100,-0.13389587172,58
2497,1787651982454,1787654479822,46,-34800,-0.13275146256,58
2497,1787651982454,1787654479830,47,-33900,-0.12931823508,58
2497,1787651982454,1787654479838,48,-33500,-0.1277923562,58
2497,1787651982454,1787654479846,49,-32400,-0.12359618928,58
2497,1787651982454,1787654479854,50,-30500,-0.1163482646,58
2497,1787651982454,1787654479862,51,-28400,-0.10833740048,58
2497,1787651982454,1787654479870,52,-26600,-0.10147094552000001,58
2497,1787651982454,1787654479878,53,-25400,-0.09689330888,58
2497,1787651982454,1787654479886,54,-24000,-0.09155273280000001,58
2497,1787651982454,1787654479894,55,-22200,-0.08468627784,58
2497,1787651982454,1787654479902,56,-20900,-0.07972717148,58
2497,1787651982454,1787654479910,57,-19800,-0.07553100456,58
2497,1787651982454,1787654479918,58,-19500,-0.0743865954,58
2497,1787651982454,1787654479926,59,-18700,-0.07133483764,58
2497,1787651982454,1787654479934,60,-17600,-0.06713867072,58
2497,1787651982454,1787654479942,61,-16700,-0.06370544324,58
2497,1787651982454,1787654479950,62,-16500,-0.06294250380000001,58
2497,1787651982454,1787654479958,63,-16600,-0.06332397352000001,58
2497,1787651982454,1787654479966,64,-16500,-0.06294250380000001,58
2497,1787651982454,1787654479974,65,-16000,-0.0610351552,58
2497,1787651982454,1787654479982,66,-15800,-0.060272215760000004,58
2497,1787651982454,1787654479990,67,-15800,-0.060272215760000004,58
2497,1787651982454,1787654479998,68,-15800,-0.060272215760000004,58
2497,1787651982454,1787654480006,69,-15700,-0.05989074604,58
2497,1787651982454,1787654480014,70,-15200,-0.05798339744,58
2497,1787651982454,1787654480022,71,-14200,-0.05416870024,58
2497,1787651982454,1787654480030,72,-13000,-0.0495910636,58
2497,1787651982454,1787654480038,73,-11600,-0.04425048752,58
2497,1787651982454,1787654480046,74,-10700,-0.040817260040000004,58
2497,1787651982454,1787654480054,75,-10500,-0.0400543206,58
2497,1787651982454,1787654480062,76,-10500,-0.0400543206,58
2497,1787651982454,1787654480070,77,-9900,-0.03776550228,58
2497,1787651982454,1787654480078,78,-8800,-0.03356933536,58
2497,1787651982454,1787654480086,79,-7700,-0.02937316844,58
2497,1787651982454,1787654480094,80,-7100,-0.02708435012,58
2497,1787651982454,1787654480102,81,-6700,-0.025558471240000002,58
2497,1787651982454,1787654480110,82,-6200,-0.02365112264,58
2497,1787651982454,1787654480118,83,-5100,-0.01945495572,58
2497,1787651982454,1787654480126,84,-3900,-0.01487731908,58
2497,1787651982454,1787654480134,85,-3200,-0.01220703104,58
2497,1787651982454,1787654480142,86,-3100,-0.01182556132,58
2497,1787651982454,1787654480150,87,-2900,-0.01106262188,58
2497,1787651982454,1787654480158,88,-2100,-0.00801086412,58
2497,1787651982454,1787654480166,89,-1500,-0.0057220458000000005,58
2497,1787651982454,1787654480174,90,-700,-0.00267028804,58
2497,1787651982454,1787654480182,91,-300,-0.00114440916,58
2497,1787651982454,1787654480190,92,0,0.0,58
2497,1787651982454,1787654480198,93,600,0.00228881832,58
2497,1787651982454,1787654480206,94,1200,0.00457763664,58
2497,1787651982454,1787654480214,95,2000,0.0076293944,58
2497,1787651982454,1787654480222,96,3000,0.011444091600000001,58
2497,1787651982454,1787654480230,97,2800,0.01068115216,58
2497,1787651982454,1787654480238,98,3100,0.01182556132,58
2497,1787651982454,1787654480246,99,4000,0.0152587888,58
2497,1787651982454,1787654480254,100,4900,0.01869201628,58
2497,1787651982454,1787654480262,101,5400,0.020599364880000002,58
2497,1787651982454,1787654480270,102,5700,0.02174377404,58
2497,1787651982454,1787654480278,103,5500,0.0209808346,58
2497,1787651982454,1787654480286,104,5100,0.01945495572,58
2497,1787651982454,1787654480294,105,5700,0.02174377404,58
2497,1787651982454,1787654480302,106,10000,0.038146972,58
2497,1787651982454,1787654480310,107,17700,0.06752014044,58
2497,1787651982454,1787654480318,108,22700,0.08659362644,58
2497,1787651982454,1787654480326,109,20000,0.076293944,58
2497,1787651982454,1787654480334,110,11500,0.0438690178,58
2497,1787651982454,1787654480342,111,3500,0.0133514402,58
2497,1787651982454,1787654480350,112,2000,0.0076293944,58
2497,1787651982454,1787654480358,113,2000,0.0076293944,58
2497,1787651982454,1787654480366,114,3000,0.011444091600000001,58
2497,1787651982454,1787654480374,115,7900,0.030136107880000002,58
2497,1787651982454,1787654480382,116,11300,0.04310607836,58
2497,1787651982454,1787654480390,117,8700,0.03318786564,58
2497,1787651982454,1787654480398,118,-9500,-0.036239623400000004,58
2497,1787651982454,1787654480406,119,-21700,-0.08277892924000001,58
2497,1787651982454,1787654480414,120,56700,0.21629333124,58
2497,1787651982454,1787654480422,121,238200,0.90866087304,58
2497,1787651982454,1787654480430,122,376100,1.43470761692,58
2497,1787651982454,1787654480438,123,324500,1.2378692414,58
2497,1787651982454,1787654480446,124,129400,0.49362181768,58
2498,1787651982454,1787654480454,0,-25900,-0.09880065748,63
2498,1787651982454,1787654480462,1,-40400,-0.15411376688,63
2498,1787651982454,1787654480470,2,13400,0.051116942480000004,63
2498,1787651982454,1787654480478,3,28400,0.10833740048,63
2498,1787651982454,1787654480486,4,5700,0.02174377404,63
2498,1787651982454,1787654480494,5,-1200,-0.00457763664,63
2498,1787651982454,1787654480502,6,4000,0.0152587888,63
2498,1787651982454,1787654480510,7,4200,0.01602172824,63
2498,1787651982454,1787654480518,8,5800,0.02212524376,63
2498,1787651982454,1787654480526,9,8600,0.03280639592,63
2498,1787651982454,1787654480534,10,10200,0.03890991144,63
2498,1787651982454,1787654480542,11,12500,0.047683715,63
2498,1787651982454,1787654480550,12,15300,0.05836486716,63
2498,1787651982454,1787654480558,13,18900,0.07209777708000001,63
2498,1787651982454,1787654480566,14,22600,0.08621215672,63
2498,1787651982454,1787654480574,15,26500,0.10108947580000001,63
2498,1787651982454,1787654480582,16,31400,0.11978149208,63
2498,1787651982454,1787654480590,17,37300,0.14228820556,63
2498,1787651982454,1787654480598,18,44100,0.16822814652,63
2498,1787651982454,1787654480606,19,52000,0.1983642544,63
2498,1787651982454,1787654480614,20,61300,0.23384093836,63
2498,1787651982454,1787654480622,21,72700,0.27732848644,63
2498,1787651982454,1787654480630,22,84500,0.3223419134,63
2498,1787651982454,1787654480638,23,95000,0.362396234,63
2498,1787651982454,1787654480646,24,102800,0.39215087216,63
2498,1787651982454,1787654480654,25,108200,0.41275023704,63
2498,1787651982454,1787654480662,26,110000,0.419616692,63
2498,1787651982454,1787654480670,27,106800,0.40740966096000003,63
2498,1787651982454,1787654480678,28,96100,0.36659240092,63
2498,1787651982454,1787654480686,29,77300,0.29487609356,63
2498,1787651982454,1787654480694,30,52800,0.20141601216000002,63
2498,1787651982454,1787654480702,31,28300,0.10795593076,63
2498,1787651982454,1787654480710,32,7700,0.02937316844,63
2498,1787651982454,1787654480718,33,-7600,-0.02899169872,63
2498,1787651982454,1787654480726,34,-18500,-0.0705718982,63
2498,1787651982454,1787654480734,35,-25300,-0.09651183916,63
2498,1787651982454,1787654480742,36,-28400,-0.10833740048,63
2498,1787651982454,1787654480750,37,-29200,-0.11138915824000001,63
2498,1787651982454,1787654480758,38,-29600,-0.11291503712,63
2498,1787651982454,1787654480766,39,-29800,-0.11367797656,63
2498,1787651982454,1787654480774,40,-30100,-0.11482238572,63
2498,1787651982454,1787654480782,41,-29500,-0.1125335674,63
2498,1787651982454,1787654480790,42,-28500,-0.1087188702,63
2498,1787651982454,1787654480798,43,-27400,-0.10452270328,63
2498,1787651982454,1787654480806,44,-26100,-0.09956359692,63
2498,1787651982454,1787654480814,45,-25000,-0.09536743,63
2498,1787651982454,1787654480822,46,-24100,-0.09193420252000001,63
2498,1787651982454,1787654480830,47,-23700,-0.09040832364,63
2498,1787651982454,1787654480838,48,-22500,-0.085830687,63
2498,1787651982454,1787654480846,49,-20900,-0.07972717148,63
2498,1787651982454,1787654480854,50,-19200,-0.07324218624,63
2498,1787651982454,1787654480862,51,-18700,-0.07133483764,63
2498,1787651982454,1787654480870,52,-18000,-0.0686645496,63
2498,1787651982454,1787654480878,53,-17800,-0.06790161016,63
2498,1787651982454,1787654480886,54,-17300,-0.06599426156,63
2498,1787651982454,1787654480894,55,-17300,-0.06599426156,63
2498,1787651982454,1787654480902,56,-17400,-0.06637573128,63
2498,1787651982454,1787654480910,57,-17600,-0.06713867072,63
2498,1787651982454,1787654480918,58,-18000,-0.0686645496,63
2498,1787651982454,1787654480926,59,-17800,-0.06790161016,63
2498,1787651982454,1787654480934,60,-17400,-0.06637573128,63
2498,1787651982454,1787654480942,61,-17400,-0.06637573128,63
2498,1787651982454,1787654480950,62,-17600,-0.06713867072,63
2498,1787651982454,1787654480958,63,-18200,-0.06942748904,63
2498,1787651982454,1787654480966,64,-18400,-0.07019042848,63
2498,1787651982454,1787654480974,65,-18000,-0.0686645496,63
2498,1787651982454,1787654480982,66,-17000,-0.0648498524,63
2498,1787651982454,1787654480990,67,-16800,-0.06408691296,63
2498,1787651982454,1787654480998,68,-17100,-0.06523132212,63
2498,1787651982454,1787654481006,69,-17200,-0.06561279184,63
2498,1787651982454,1787654481014,70,-16200,-0.06179809464,63
2498,1787651982454,1787654481022,71,-14700,-0.05607604884,63
2498,1787651982454,1787654481030,72,-13900,-0.05302429108,63
2498,1787651982454,1787654481038,73,-14100,-0.05378723052,63
2498,1787651982454,1787654481046,74,-14000,-0.0534057608,63
2498,1787651982454,1787654481054,75,-13600,-0.05187988192,63
2498,1787651982454,1787654481062,76,-13000,-0.0495910636,63
2498,1787651982454,1787654481070,77,-12700,-0.04844665444,63
2498,1787651982454,1787654481078,78,-12500,-0.047683715,63
2498,1787651982454,1787654481086,79,-12300,-0.04692077556,63
2498,1787651982454,1787654481094,80,-11800,-0.04501342696,63
2498,1787651982454,1787654481102,81,-11300,-0.04310607836,63
2498,1787651982454,1787654481110,82,-10800,-0.041198729760000004,63
2498,1787651982454,1787654481118,83,-10100,-0.03852844172,63
2498,1787651982454,1787654481126,84,-9500,-0.036239623400000004,63
2498,1787651982454,1787654481134,85,-9400,-0.03585815368,63
2498,1787651982454,1787654481142,86,-9500,-0.036239623400000004,63
2498,1787651982454,1787654481150,87,-8700,-0.03318786564,63
2498,1787651982454,1787654481158,88,-7800,-0.02975463816,63
2498,1787651982454,1787654481166,89,-7200,-0.02746581984,63
2498,1787651982454,1787654481174,90,-6900,-0.02632141068,63
2498,1787651982454,1787654481182,91,-7000,-0.0267028804,63
2498,1787651982454,1787654481190,92,-7700,-0.02937316844,63
2498,1787651982454,1787654481198,93,-7800,-0.02975463816,63
2498,1787651982454,1787654481206,94,-5700,-0.02174377404,63
2498,1787651982454,1787654481214,95,0,0.0,63
2498,1787651982454,1787654481222,96,7100,0.02708435012,63
2498,1787651982454,1787654481230,97,9100,0.03471374452,63
2498,1787651982454,1787654481238,98,3800,0.01449584936,63
2498,1787651982454,1787654481246,99,-5300,-0.02021789516,63
2498,1787651982454,1787654481254,100,-11100,-0.04234313892,63
2498,1787651982454,1787654481262,101,-11200,-0.04272460864,63
2498,1787651982454,1787654481270,102,-10600,-0.04043579032,63
2498,1787651982454,1787654481278,103,-8400,-0.03204345648,63
2498,1787651982454,1787654481286,104,-3400,-0.01296997048,63
2498,1787651982454,1787654481294,105,-2200,-0.00839233384,63
2498,1787651982454,1787654481302,106,-10200,-0.03890991144,63
2498,1787651982454,1787654481310,107,-33800,-0.12893676536,63
2498,1787651982454,1787654481318,108,-23600,-0.09002685392,63
2498,1787651982454,1787654481326,109,102200,0.38986205384,63
2498,1787651982454,1787654481334,110,297400,1.13449094728,63
2498,1787651982454,1787654481342,111,381900,1.45683286068,63
2498,1787651982454,1787654481350,112,261600,0.99792478752,63
2498,1787651982454,1787654481358,113,53800,0.20523070936,63
2498,1787651982454,1787654481366,114,-58400,-0.22277831648000002,63
2498,1787651982454,1787654481374,115,-36200,-0.13809203864,63
2498,1787651982454,1787654481382,116,12200,0.04653930584,63
2498,1787651982454,1787654481390,117,6900,0.02632141068,63
2498,1787651982454,1787654481398,118,-15200,-0.05798339744,63
2498,1787651982454,1787654481406,119,-14900,-0.05683898828,63
2498,1787651982454,1787654481414,120,-10900,-0.04158019948,63
2498,1787651982454,1787654481422,121,-10800,-0.041198729760000004,63
2498,1787651982454,1787654481430,122,-8200,-0.031280517040000004,63
2498,1787651982454,1787654481438,123,-6400,-0.02441406208,63
2498,1787651982454,1787654481446,124,-3600,-0.01373290992,63
2499,1787651982454,1787654481454,0,-200,-0.00076293944,63
2499,1787651982454,1787654481462,1,2300,0.00877380356,63
2499,1787651982454,1787654481470,2,5300,0.02021789516,63
2499,1787651982454,1787654481478,3,8800,0.03356933536,63
2499,1787651982454,1787654481486,4,13300,0.050735472760000004,63
2499,1787651982454,1787654481494,5,18600,0.07095336792,63
2499,1787651982454,1787654481502,6,24700,0.09422302084,63
2499,1787651982454,1787654481510,7,31100,0.11863708292,63
2499,1787651982454,1787654481518,8,39200,0.14953613024,63
2499,1787651982454,1787654481526,9,49100,0.18730163252,63
2499,1787651982454,1787654481534,10,60900,0.23231505948,63
2499,1787651982454,1787654481542,11,73000,0.2784728956,63
2499,1787651982454,1787654481550,12,82500,0.314712519,63
2499,1787651982454,1787654481558,13,88900,0.33912658108,63
2499,1787651982454,1787654481566,14,93200,0.35552977904,63
2499,1787651982454,1787654481574,15,93300,0.35591124876,63
2499,1787651982454,1787654481582,16,87500,0.333786005,63
2499,1787651982454,1787654481590,17,72700,0.27732848644,63
2499,1787651982454,1787654481598,18,50400,0.19226073888,63
2499,1787651982454,1787654481606,19,25500,0.0972747786,63
2499,1787651982454,1787654481614,20,2900,0.01106262188,63
2499,1787651982454,1787654481622,21,-14600,-0.055694579120000004,63
2499,1787651982454,1787654481630,22,-27000,-0.1029968244,63
2499,1787651982454,1787654481638,23,-34600,-0.13198852312,63
2499,1787651982454,1787654481646,24,-38800,-0.14801025136,63
2499,1787651982454,1787654481654,25,-41000,-0.1564025852,63
2499,1787651982454,1787654481662,26,-42000,-0.1602172824,63
2499,1787651982454,1787654481670,27,-42400,-0.16174316128,63
2499,1787651982454,1787654481678,28,-41700,-0.15907287324,63
2499,1787651982454,1787654481686,29,-40700,-0.15525817604,63
2499,1787651982454,1787654481694,30,-39600,-0.15106200912,63
2499,1787651982454,1787654481702,31,-38900,-0.14839172108,63
2499,1787651982454,1787654481710,32,-38000,-0.14495849360000002,63
2499,1787651982454,1787654481718,33,-37000,-0.1411437964,63
2499,1787651982454,1787654481726,34,-35900,-0.13694762948,63
2499,1787651982454,1787654481734,35,-34400,-0.13122558368,63
2499,1787651982454,1787654481742,36,-33000,-0.12588500760000002,63
2499,1787651982454,1787654481750,37,-31600,-0.12054443152000001,63
2499,1787651982454,1787654481758,38,-30900,-0.11787414348,63
2499,1787651982454,1787654481766,39,-30100,-0.11482238572,63
2499,1787651982454,1787654481774,40,-28900,-0.11024474908000001,63
2499,1787651982454,1787654481782,41,-27600,-0.10528564272,63
2499,1787651982454,1787654481790,42,-26700,-0.10185241524000001,63
2499,1787651982454,1787654481798,43,-26300,-0.10032653636,63
2499,1787651982454,1787654481806,44,-25900,-0.09880065748,63
2499,1787651982454,1787654481814,45,-25800,-0.09841918776,63
2499,1787651982454,1787654481822,46,-25600,-0.09765624832,63
2499,1787651982454,1787654481830,47,-25300,-0.09651183916,63
2499,1787651982454,1787654481838,48,-24800,-0.09460449056,63
2499,1787651982454,1787654481846,49,-24300,-0.09269714196,63
2499,1787651982454,1787654481854,50,-24300,-0.09269714196,63
2499,1787651982454,1787654481862,51,-24300,-0.09269714196,63
2499,1787651982454,1787654481870,52,-24100,-0.09193420252000001,63
2499,1787651982454,1787654481878,53,-23700,-0.09040832364,63
2499,1787651982454,1787654481886,54,-22800,-0.08697509616,63
2499,1787651982454,1787654481894,55,-22300,-0.08506774756,63
2499,1787651982454,1787654481902,56,-22000,-0.0839233384,63
2499,1787651982454,1787654481910,57,-21700,-0.08277892924000001,63
2499,1787651982454,1787654481918,58,-20800,-0.07934570176,63
2499,1787651982454,1787654481926,59,-19400,-0.07400512568,63
2499,1787651982454,1787654481934,60,-18600,-0.07095336792,63
2499,1787651982454,1787654481942,61,-18400,-0.07019042848,63
2499,1787651982454,1787654481950,62,-18300,-0.06980895876,63
2499,1787651982454,1787654481958,63,-17900,-0.06828307988,63
2499,1787651982454,1787654481966,64,-17100,-0.06523132212,63
2499,1787651982454,1787654481974,65,-16300,-0.06217956436,63
2499,1787651982454,1787654481982,66,-15500,-0.0591278066,63
2499,1787651982454,1787654481990,67,-14900,-0.05683898828,63
2499,1787651982454,1787654481998,68,-14600,-0.055694579120000004,63
2499,1787651982454,1787654482006,69,-14100,-0.05378723052,63
2499,1787651982454,1787654482014,70,-13900,-0.05302429108,63
2499,1787651982454,1787654482022,71,-13100,-0.04997253332,63
2499,1787651982454,1787654482030,72,-12500,-0.047683715,63
2499,1787651982454,1787654482038,73,-11700,-0.04463195724,63
2499,1787651982454,1787654482046,74,-11600,-0.04425048752,63
2499,1787651982454,1787654482054,75,-11300,-0.04310607836,63
2499,1787651982454,1787654482062,76,-11000,-0.0419616692,63
2499,1787651982454,1787654482070,77,-10200,-0.03890991144,63
2499,1787651982454,1787654482078,78,-9600,-0.03662109312,63
2499,1787651982454,1787654482086,79,-9200,-0.03509521424,63
2499,1787651982454,1787654482094,80,-9000,-0.0343322748,63
2499,1787651982454,1787654482102,81,-8000,-0.0305175776,63
2499,1787651982454,1787654482110,82,-7800,-0.02975463816,63
2499,1787651982454,1787654482118,83,-8100,-0.03089904732,63
2499,1787651982454,1787654482126,84,-8600,-0.03280639592,63
2499,1787651982454,1787654482134,85,-8700,-0.03318786564,63
2499,1787651982454,1787654482142,86,-7400,-0.02822875928,63
2499,1787651982454,1787654482150,87,-2900,-0.01106262188,63
2499,1787651982454,1787654482158,88,4300,0.01640319796,63
2499,1787651982454,1787654482166,89,8900,0.03395080508,63
2499,1787651982454,1787654482174,90,6500,0.0247955318,63
2499,1787651982454,1787654482182,91,-2000,-0.0076293944,63
2499,1787651982454,1787654482190,92,-10100,-0.03852844172,63
2499,1787651982454,1787654482198,93,-12000,-0.045776366400000004,63
2499,1787651982454,1787654482206,94,-11300,-0.04310607836,63
2499,1787651982454,1787654482214,95,-9800,-0.03738403256,63
2499,1787651982454,1787654482222,96,-4700,-0.01792907684,63
2499,1787651982454,1787654482230,97,-2100,-0.00801086412,63
2499,1787651982454,1787654482238,98,-6600,-0.025177001520000002,63
2499,1787651982454,1787654482246,99,-26200,-0.09994506664,63
2499,1787651982454,1787654482254,100,-35900,-0.13694762948,63
2499,1787651982454,1787654482262,101,50600,0.19302367832,63
2499,1787651982454,1787654482270,102,239700,0.91438291884,63
2499,1787651982454,1787654482278,103,376600,1.43661496552,63
2499,1787651982454,1787654482286,104,316900,1.20887754268,63
2499,1787651982454,1787654482294,105,116000,0.44250487520000004,63
2499,1787651982454,1787654482302,106,-37900,-0.14457702388000002,63
2499,1787651982454,1787654482310,107,-50100,-0.19111632972,63
2499,1787651982454,1787654482318,108,2200,0.00839233384,63
2499,1787651982454,1787654482326,109,12900,0.04920959388,63
2499,1787651982454,1787654482334,110,-11600,-0.04425048752,63
2499,1787651982454,1787654482342,111,-17200,-0.06561279184,63
2499,1787651982454,1787654482350,112,-11300,-0.04310607836,63
2499,1787651982454,1787654482358,113,-10700,-0.040817260040000004,63
2499,1787651982454,1787654482366,114,-9600,-0.03662109312,63
2499,1787651982454,1787654482374,115,-6900,-0.02632141068,63
2499,1787651982454,1787654482382,116,-4500,-0.0171661374,63
2499,1787651982454,1787654482390,117,-1700,-0.00648498524,63
2499,1787651982454,1787654482398,118,900,0.00343322748,63
2499,1787651982454,1787654482406,119,3900,0.01487731908,63
2499,1787651982454,1787654482414,120,7400,0.02822875928,63
2499,1787651982454,1787654482422,121,11500,0.0438690178,63
2499,1787651982454,1787654482430,122,15900,0.060653685480000004,63
2499,1787651982454,1787654482438,123,21800,0.08316039896,63
2499,1787651982454,1787654482446,124,28500,0.1087188702,63
2500,1787651982454,1787654482454,0,36100,0.13771056892,63
2500,1787651982454,1787654482462,1,44900,0.17127990428,63
2500,1787651982454,1787654482470,2,56300,0.21476745236,63
2500,1787651982454,1787654482478,3,68100,0.25978087932,63
2500,1787651982454,1787654482486,4,78700,0.30021666964,63
2500,1787651982454,1787654482494,5,86300,0.32920836836,63
2500,1787651982454,1787654482502,6,91200,0.34790038464,63
2500,1787651982454,1787654482510,7,93400,0.35629271848,63
2500,1787651982454,1787654482518,8,90300,0.34446715716,63
2500,1787651982454,1787654482526,9,79200,0.30212401824,63
2500,1787651982454,1787654482534,10,59700,0.22773742284,63
2500,1787651982454,1787654482542,11,35900,0.13694762948,63
2500,1787651982454,1787654482550,12,12100,0.046157836120000004,63
2500,1787651982454,1787654482558,13,-7400,-0.02822875928,63
2500,1787651982454,1787654482566,14,-21100,-0.08049011092,63
2500,1787651982454,1787654482574,15,-30200,-0.11520385544,63
2500,1787651982454,1787654482582,16,-35100,-0.13389587172,63
2500,1787651982454,1787654482590,17,-37900,-0.14457702388000002,63
2500,1787651982454,1787654482598,18,-39400,-0.15029906968,63
2500,1787651982454,1787654482606,19,-39700,-0.15144347884,63
2500,1787651982454,1787654482614,20,-39300,-0.14991759996,63
2500,1787651982454,1787654482622,21,-38900,-0.14839172108,63
2500,1787651982454,1787654482630,22,-37800,-0.14419555416000002,63
2500,1787651982454,1787654482638,23,-36400,-0.13885497808,63
2500,1787651982454,1787654482646,24,-35200,-0.13427734144,63
2500,1787651982454,1787654482654,25,-34000,-0.1296997048,63
2500,1787651982454,1787654482662,26,-33100,-0.12626647732000001,63
2500,1787651982454,1787654482670,27,-31400,-0.11978149208,63
2500,1787651982454,1787654482678,28,-29500,-0.1125335674,63
2500,1787651982454,1787654482686,29,-28200,-0.10757446104,63
2500,1787651982454,1787654482694,30,-27100,-0.10337829412,63
2500,1787651982454,1787654482702,31,-26200,-0.09994506664,63
2500,1787651982454,1787654482710,32,-25100,-0.09574889972,63
2500,1787651982454,1787654482718,33,-24400,-0.09307861168,63
2500,1787651982454,1787654482726,34,-23900,-0.09117126308000001,63
2500,1787651982454,1787654482734,35,-23600,-0.09002685392,63
2500,1787651982454,1787654482742,36,-23500,-0.0896453842,63
2500,1787651982454,1787654482750,37,-23500,-0.0896453842,63
2500,1787651982454,1787654482758,38,-23300,-0.08888244476,63
2500,1787651982454,1787654482766,39,-23500,-0.0896453842,63
2500,1787651982454,1787654482774,40,-23400,-0.08926391448,63
2500,1787651982454,1787654482782,41,-23200,-0.08850097504,63
2500,1787651982454,1787654482790,42,-22800,-0.08697509616,63
2500,1787651982454,1787654482798,43,-22600,-0.08621215672,63
2500,1787651982454,1787654482806,44,-22200,-0.08468627784,63
2500,1787651982454,1787654482814,45,-21300,-0.08125305036,63
2500,1787651982454,1787654482822,46,-20800,-0.07934570176,63
2500,1787651982454,1787654482830,47,-20200,-0.07705688344,63
2500,1787651982454,1787654482838,48,-19500,-0.0743865954,63
2500,1787651982454,1787654482846,49,-18900,-0.07209777708000001,63
2500,1787651982454,1787654482854,50,-18300,-0.06980895876,63
2500,1787651982454,1787654482862,51,-17400,-0.06637573128,63
2500,1787651982454,1787654482870,52,-16800,-0.06408691296,63
2500,1787651982454,1787654482878,53,-16000,-0.0610351552,63
2500,1787651982454,1787654482886,54,-15000,-0.057220458,63
2500,1787651982454,1787654482894,55,-14400,-0.05493163968,63
2500,1787651982454,1787654482902,56,-14100,-0.05378723052,63
2500,1787651982454,1787654482910,57,-13600,-0.05187988192,63
2500,1787651982454,1787654482918,58,-12900,-0.04920959388,63
2500,1787651982454,1787654482926,59,-12300,-0.04692077556,63
2500,1787651982454,1787654482934,60,-11900,-0.04539489668,63
2500,1787651982454,1787654482942,61,-11300,-0.04310607836,63
2500,1787651982454,1787654482950,62,-10500,-0.0400543206,63
2500,1787651982454,1787654482958,63,-10000,-0.038146972,63
2500,1787651982454,1787654482966,64,-9700,-0.03700256284,63
2500,1787651982454,1787654482974,65,-9000,-0.0343322748,63
2500,1787651982454,1787654482982,66,-8000,-0.0305175776,63
2500,1787651982454,1787654482990,67,-7000,-0.0267028804,63
2500,1787651982454,1787654482998,68,-6800,-0.02593994096,63
2500,1787651982454,1787654483006,69,-6800,-0.02593994096,63
2500,1787651982454,1787654483014,70,-6600,-0.025177001520000002,63
2500,1787651982454,1787654483022,71,-6300,-0.02403259236,63
2500,1787651982454,1787654483030,72,-6000,-0.022888183200000002,63
2500,1787651982454,1787654483038,73,-5500,-0.0209808346,63
2500,1787651982454,1787654483046,74,-4600,-0.01754760712,63
2500,1787651982454,1787654483054,75,-3900,-0.01487731908,63
2500,1787651982454,1787654483062,76,-3800,-0.01449584936,63
2500,1787651982454,1787654483070,77,-3800,-0.01449584936,63
2500,1787651982454,1787654483078,78,-3200,-0.01220703104,63
2500,1787651982454,1787654483086,79,-2100,-0.00801086412,63
2500,1787651982454,1787654483094,80,-1900,-0.00724792468,63
2500,1787651982454,1787654483102,81,-1800,-0.00686645496,63
2500,1787651982454,1787654483110,82,-2100,-0.00801086412,63
2500,1787651982454,1787654483118,83,-2600,-0.00991821272,63
2500,1787651982454,1787654483126,84,-2800,-0.01068115216,63
2500,1787651982454,1787654483134,85,400,0.00152587888,63
2500,1787651982454,1787654483142,86,6800,0.02593994096,63
2500,1787651982454,1787654483150,87,13700,0.05226135164,63
2500,1787651982454,1787654483158,88,13700,0.05226135164,63
2500,1787651982454,1787654483166,89,6700,0.025558471240000002,63
2500,1787651982454,1787654483174,90,-2500,-0.009536743,63
